Time (s),Kanaal 1
0,0.1992
1,0.1395
2,0.1395
3,0.0598
4,0.0000
5,0.0598
6,0.0000
7,-0.3586
8,-0.6176
9,-0.5180
10,-0.4383
11,-0.0797
12,0.0797
13,0.0996
14,0.1195
15,0.1195
16,0.1793
17,0.1793
18,0.0797
19,-0.0199
20,-0.0398
21,0.0398
22,0.0398
23,0.0000
24,-0.0398
25,0.0000
26,0.0000
27,-0.0598
28,-0.0398
29,-0.0598
30,-0.1395
31,-0.1594
32,-0.0996
33,0.0199
34,-0.0797
35,-0.2191
36,-0.4184
37,-0.4383
38,-0.3586
39,-0.1594
40,0.0199
41,0.2191
42,0.2590
43,0.1793
44,0.1793
45,0.1594
46,-0.0199
47,-0.0996
48,-0.0996
49,-0.0398
50,-0.0199
51,0.0000
52,-0.0398
53,-0.0797
54,-0.0199
55,0.0199
56,0.0996
57,0.1992
58,0.2590
59,0.2988
60,0.2789
61,0.2988
62,0.1594
63,-0.0598
64,-0.0996
65,-0.1195
66,-0.0199
67,0.0598
68,0.0000
69,0.0398
70,0.0000
71,0.0000
72,0.0199
73,0.0598
74,0.0000
75,-0.1992
76,-0.4582
77,-0.5379
78,-0.1195
79,0.1594
80,0.2988
81,0.3984
82,0.3586
83,0.2988
84,0.1395
85,-0.0398
86,0.0000
87,-0.1395
88,-0.1395
89,-0.0797
90,0.0000
91,-0.0996
92,-0.1594
93,-0.1395
94,-0.0996
95,-0.0797
96,-0.0598
97,-0.0398
98,-0.0398
99,0.0199
100,0.1594
101,0.2391
102,0.1395
103,0.1793
104,0.2789
105,0.1992
106,0.0996
107,0.0199
108,-0.0398
109,0.0398
110,0.0797
111,0.1395
112,0.2391
113,0.2590
114,0.2590
115,0.2191
116,0.2191
117,0.2191
118,0.1395
119,0.0598
120,-0.0797
121,-0.1992
122,-0.2191
123,-0.2988
124,-0.2988
125,-0.1594
126,0.0598
127,0.1793
128,0.1992
129,0.1793
130,0.1992
131,0.1195
132,0.1992
133,0.1992
134,0.1992
135,-0.0199
136,-0.1594
137,-0.1594
138,0.0000
139,0.0996
140,0.2590
141,0.2789
142,0.1992
143,0.1395
144,0.0398
145,0.0000
146,-0.1793
147,-0.1395
148,-0.0797
149,-0.0199
150,-0.0996
151,-0.1195
152,-0.0598
153,-0.0598
154,-0.1395
155,-0.0996
156,-0.2191
157,-0.3188
158,-0.3984
159,-0.2590
160,-0.0996
161,0.0797
162,0.1395
163,0.1395
164,0.0797
165,0.0996
166,-0.0398
167,-0.1594
168,-0.2988
169,-0.3586
170,-0.4184
171,-0.3586
172,-0.2988
173,-0.2391
174,-0.3586
175,-0.5180
176,-0.5379
177,-0.4184
178,-0.1594
179,0.0398
180,0.1195
181,0.0598
182,-0.2191
183,-0.2590
184,-0.1395
185,0.2391
186,0.4781
187,0.4582
188,0.4582
189,0.3387
190,0.2590
191,0.2191
192,0.0598
193,-0.0199
194,0.0000
195,0.1992
196,0.1793
197,0.1793
198,0.0797
199,0.0398
200,-0.0398
201,0.0199
202,0.0000
203,-0.0199
204,-0.0398
205,-0.0797
206,-0.0797
207,-0.0797
208,-0.0598
209,-0.0797
210,0.0199
211,-0.0398
212,-0.0398
213,-0.0996
214,-0.0797
215,-0.0797
216,-0.0398
217,0.0000
218,-0.1195
219,-0.0996
220,0.0598
221,0.1793
222,0.2789
223,0.2789
224,0.2391
225,0.1195
226,-0.0199
227,-0.1395
228,-0.1594
229,-0.1195
230,-0.0199
231,-0.1195
232,0.0199
233,0.1992
234,0.2191
235,0.2988
236,0.3188
237,0.1793
238,0.0199
239,-0.1195
240,-0.1395
241,-0.0398
242,0.0000
243,0.0398
244,0.0199
245,0.0398
246,0.0199
247,-0.1793
248,-0.3785
249,-0.3785
250,-0.2191
251,0.0199
252,0.0996
253,0.0797
254,0.0996
255,0.0797
256,0.0598
257,-0.0797
258,-0.0996
259,-0.1395
260,-0.0398
261,-0.0199
262,-0.0398
263,-0.0199
264,0.0199
265,0.1992
266,0.2391
267,0.1992
268,0.1793
269,0.0797
270,0.0598
271,-0.0398
272,-0.1594
273,-0.1395
274,-0.1395
275,-0.1195
276,-0.1195
277,-0.1195
278,-0.0398
279,-0.0797
280,-0.0797
281,-0.0996
282,-0.0996
283,-0.1395
284,-0.1594
285,-0.1395
286,-0.1594
287,-0.0797
288,0.0598
289,0.1395
290,0.0199
291,-0.0598
292,-0.2391
293,-0.2590
294,-0.3188
295,-0.3586
296,-0.3188
297,-0.2191
298,-0.1195
299,0.0000
300,0.0598
301,0.0398
302,0.0996
303,0.1395
304,0.2191
305,0.1992
306,0.0598
307,0.1195
308,0.1992
309,0.1793
310,-0.0398
311,-0.0797
312,0.0000
313,0.0199
314,0.0398
315,0.1395
316,0.1395
317,0.0598
318,0.2191
319,0.2191
320,0.2391
321,0.1793
322,0.0000
323,-0.1395
324,-0.2590
325,-0.1195
326,0.1992
327,0.4781
328,0.3785
329,0.2590
330,0.1992
331,0.1594
332,0.1395
333,0.0000
334,0.0000
335,0.1992
336,0.0398
337,0.0996
338,0.1793
339,0.1793
340,0.0398
341,-0.0199
342,0.0398
343,0.1594
344,0.2789
345,0.2988
346,0.0996
347,-0.1195
348,-0.1395
349,-0.0398
350,0.0199
351,0.0000
352,0.0199
353,0.0398
354,-0.0398
355,0.0000
356,-0.0598
357,-0.1793
358,-0.2988
359,-0.1195
360,-0.0398
361,0.0598
362,0.1793
363,0.3785
364,0.2789
365,0.3586
366,0.2988
367,0.0797
368,0.0199
369,-0.0797
370,-0.0797
371,-0.1195
372,-0.1395
373,-0.0199
374,-0.0199
375,0.0797
376,0.0598
377,0.0996
378,-0.1195
379,-0.2191
380,-0.2789
381,-0.2391
382,-0.3586
383,-0.5180
384,-0.3984
385,-0.0996
386,0.1395
387,0.3387
388,0.4582
389,0.4781
390,0.3984
391,0.1793
392,0.0398
393,-0.0797
394,-0.1395
395,-0.1195
396,-0.0797
397,-0.0398
398,-0.1395
399,-0.2590
400,-0.1992
401,-0.0398
402,-0.0598
403,-0.0598
404,-0.2590
405,-0.2789
406,-0.1395
407,0.0398
408,0.1594
409,0.2191
410,0.3188
411,0.3785
412,0.2191
413,0.0996
414,0.0797
415,0.0000
416,0.0598
417,0.0598
418,0.0996
419,0.0797
420,0.0199
421,0.1195
422,0.0797
423,-0.1195
424,-0.2391
425,-0.1395
426,0.0797
427,0.1793
428,0.2590
429,0.1992
430,0.1594
431,0.1594
432,0.0797
433,0.0996
434,0.0398
435,0.0199
436,0.0199
437,0.1992
438,0.2191
439,0.2988
440,0.3188
441,0.2789
442,0.2590
443,0.1395
444,-0.1594
445,-0.4184
446,-0.3785
447,-0.1992
448,0.0000
449,0.0598
450,0.1395
451,0.1992
452,0.0797
453,0.1395
454,-0.0598
455,-0.2590
456,-0.3188
457,-0.2191
458,-0.0199
459,-0.0398
460,0.1195
461,0.0996
462,0.1395
463,0.1992
464,0.0598
465,0.0199
466,0.0398
467,-0.1793
468,-0.2391
469,-0.1992
470,-0.0797
471,0.0797
472,0.0598
473,0.0199
474,-0.1992
475,-0.2988
476,-0.1992
477,-0.1594
478,-0.2789
479,-0.3188
480,-0.2590
481,-0.1992
482,-0.0199
483,-0.0398
484,-0.1793
485,-0.1395
486,-0.1793
487,-0.2590
488,-0.1992
489,-0.0797
490,0.0398
491,0.0598
492,0.0996
493,0.0797
494,-0.0598
495,-0.0598
496,-0.0996
497,-0.0398
498,0.0000
499,0.0199
500,0.1195
501,0.0598
502,0.0797
503,-0.0398
504,-0.1793
505,-0.3586
506,-0.2191
507,-0.1195
508,-0.0398
509,-0.0598
510,-0.0797
511,-0.0598
512,-0.0199
513,0.0199
514,-0.0996
515,-0.0996
516,-0.0199
517,-0.0398
518,0.0797
519,0.0996
520,0.2391
521,0.1195
522,0.0000
523,-0.1195
524,-0.1195
525,-0.0199
526,0.0996
527,0.1793
528,0.2789
529,0.2191
530,0.1594
531,0.0797
532,-0.0996
533,-0.3188
534,-0.5977
535,-0.4582
536,-0.3387
537,-0.1992
538,-0.0199
539,0.0598
540,-0.0199
541,-0.0598
542,-0.0199
543,0.0398
544,-0.0797
545,0.0000
546,0.0199
547,0.0797
548,0.0598
549,-0.0398
550,-0.1195
551,-0.0797
552,-0.1195
553,-0.2590
554,-0.3785
555,-0.1594
556,0.1195
557,0.3586
558,0.4582
559,0.3984
560,0.3586
561,0.1992
562,-0.0797
563,-0.0797
564,-0.0996
565,-0.0797
566,0.1793
567,0.3188
568,0.3785
569,0.2988
570,0.2789
571,0.2391
572,0.2789
573,0.3387
574,0.1793
575,0.1594
576,0.0797
577,0.0996
578,0.1395
579,0.0598
580,0.0199
581,-0.0797
582,0.0000
583,0.0000
584,0.0797
585,0.1594
586,0.1594
587,-0.0797
588,-0.1594
589,-0.1195
590,0.0199
591,-0.0996
592,-0.1395
593,-0.2391
594,-0.2191
595,-0.1793
596,-0.2191
597,-0.0199
598,0.0996
599,0.1992
600,0.3188
601,0.1992
602,0.2590
603,0.1594
604,0.0797
605,0.0797
606,0.0398
607,-0.0797
608,-0.0797
609,-0.0996
610,-0.0996
611,-0.1793
612,-0.1992
613,-0.2191
614,-0.3188
615,-0.4980
616,-0.5379
617,-0.6176
618,-0.5977
619,-0.3785
620,-0.1992
621,-0.0398
622,0.0797
623,0.1195
624,0.1195
625,0.0797
626,0.0000
627,0.0996
628,-0.0199
629,-0.1395
630,-0.2391
631,-0.4383
632,-0.3984
633,-0.3387
634,-0.1594
635,0.0398
636,0.1793
637,0.2191
638,0.3188
639,0.3785
640,0.4184
641,0.4980
642,0.4184
643,0.3785
644,0.2789
645,0.1395
646,0.1395
647,0.0398
648,0.0000
649,0.0000
650,0.0398
651,0.0598
652,-0.0199
653,-0.0797
654,-0.0996
655,-0.1395
656,-0.2789
657,-0.1992
658,-0.1195
659,0.0398
660,0.2191
661,0.3984
662,0.4980
663,0.5379
664,0.5180
665,0.4781
666,0.2789
667,0.1992
668,0.0996
669,-0.1594
670,-0.3586
671,-0.1395
672,0.0000
673,0.1195
674,0.2391
675,0.2391
676,0.1793
677,0.1992
678,0.0598
679,-0.0398
680,-0.0598
681,-0.1594
682,-0.2191
683,-0.1195
684,-0.0199
685,0.0797
686,0.0000
687,-0.2191
688,-0.3785
689,-0.2391
690,-0.0996
691,0.0996
692,0.1395
693,0.0996
694,0.1195
695,0.2191
696,0.2391
697,0.1594
698,0.0000
699,-0.3586
700,-0.3984
701,-0.2988
702,-0.1793
703,-0.0996
704,0.0398
705,0.1395
706,0.1793
707,0.0996
708,0.0598
709,-0.0797
710,-0.2191
711,-0.1992
712,-0.1395
713,-0.0797
714,-0.1195
715,-0.1793
716,-0.0398
717,-0.1195
718,-0.1793
719,-0.2191
720,-0.3387
721,-0.5180
722,-0.5777
723,-0.3984
724,-0.1992
725,-0.1594
726,-0.2191
727,-0.2191
728,-0.1195
729,-0.0598
730,0.0199
731,0.1395
732,0.1395
733,0.1594
734,0.0996
735,0.0598
736,0.1594
737,0.2191
738,0.0797
739,0.0398
740,0.0199
741,0.0398
742,-0.0199
743,-0.0797
744,-0.0598
745,-0.1992
746,-0.2789
747,-0.2988
748,-0.2590
749,-0.2789
750,-0.1395
751,-0.0199
752,0.0199
753,0.0000
754,0.0398
755,0.0598
756,0.0996
757,0.0598
758,-0.1195
759,-0.2191
760,-0.1793
761,-0.3188
762,-0.6375
763,-0.5379
764,-0.0398
765,0.2391
766,0.3387
767,0.2789
768,0.1793
769,0.0000
770,-0.0398
771,0.0199
772,-0.0398
773,-0.1992
774,-0.2988
775,-0.2191
776,-0.1793
777,-0.3188
778,-0.2988
779,-0.2391
780,-0.3586
781,-0.2988
782,-0.1395
783,0.0000
784,0.0996
785,0.0598
786,0.0598
787,0.0000
788,0.0797
789,0.0598
790,0.1395
791,0.1793
792,0.1195
793,0.1195
794,0.2391
795,0.1992
796,0.1195
797,0.0398
798,0.1195
799,0.0398
800,0.0000
801,0.0000
802,0.0598
803,0.0398
804,-0.0797
805,-0.3785
806,-0.4383
807,-0.4383
808,-0.2988
809,-0.0797
810,0.0398
811,0.1195
812,0.1395
813,-0.0797
814,0.0000
815,0.1793
816,0.2789
817,0.2988
818,0.2391
819,0.1594
820,0.0797
821,-0.1395
822,-0.1395
823,-0.1395
824,-0.1395
825,-0.0398
826,-0.1195
827,-0.2988
828,-0.2590
829,-0.0598
830,0.0598
831,0.0398
832,0.1992
833,0.1992
834,0.1594
835,0.2988
836,0.3387
837,0.3586
838,0.3387
839,0.3586
840,0.2191
841,0.2590
842,0.1594
843,-0.0398
844,-0.3984
845,-0.5180
846,-0.4582
847,-0.3984
848,-0.2191
849,-0.0199
850,0.0398
851,0.1793
852,0.1395
853,0.0398
854,0.2391
855,0.2988
856,0.2789
857,0.3586
858,0.2590
859,0.2191
860,0.1395
861,0.0797
862,-0.0797
863,-0.2590
864,-0.1793
865,-0.0996
866,-0.0996
867,-0.0996
868,-0.1195
869,-0.1594
870,-0.1594
871,-0.1992
872,-0.2191
873,-0.2789
874,-0.1793
875,-0.1395
876,-0.1992
877,-0.2988
878,-0.3188
879,-0.2590
880,-0.1195
881,0.0000
882,-0.0199
883,-0.0598
884,-0.0199
885,-0.0199
886,-0.1395
887,-0.2988
888,-0.2988
889,-0.2191
890,-0.2988
891,-0.3387
892,-0.3586
893,-0.3785
894,-0.1992
895,-0.0398
896,-0.2191
897,-0.0199
898,0.3387
899,0.3984
900,0.2391
901,0.0797
902,0.0996
903,0.2391
904,0.2590
905,0.2590
906,0.1992
907,0.1793
908,0.0000
909,0.0797
910,0.0797
911,0.0996
912,0.0598
913,-0.0398
914,-0.0996
915,-0.0598
916,0.0398
917,0.0797
918,0.1594
919,0.1594
920,0.1594
921,0.0398
922,0.0199
923,0.0797
924,-0.0199
925,-0.0398
926,-0.0797
927,-0.2789
928,-0.2789
929,-0.2988
930,-0.1793
931,-0.0199
932,0.0797
933,0.1594
934,0.1992
935,0.1793
936,0.2191
937,0.0199
938,0.0199
939,-0.0199
940,0.0996
941,0.1395
942,0.0797
943,-0.0398
944,-0.0199
945,-0.0598
946,-0.0199
947,0.2789
948,0.1992
949,0.1793
950,0.0996
951,-0.0398
952,-0.0996
953,-0.0199
954,0.0398
955,0.0598
956,0.0000
957,-0.1195
958,-0.1594
959,-0.1793
960,-0.1195
961,-0.1992
962,-0.3188
963,-0.6773
964,-0.7172
965,-0.3984
966,-0.2789
967,0.0797
968,0.2789
969,0.1395
970,0.0199
971,-0.0398
972,-0.0398
973,0.0199
974,-0.0199
975,0.0598
976,0.0797
977,0.0797
978,-0.0398
979,-0.0199
980,0.0199
981,-0.0598
982,-0.0199
983,0.0000
984,-0.0797
985,-0.0199
986,0.0598
987,-0.0996
988,-0.0797
989,-0.1594
990,-0.5777
991,-0.4582
992,-0.1992
993,0.0000
994,0.0996
995,0.2191
996,0.2590
997,0.2789
998,0.2789
999,0.2789
1000,0.0996
1001,0.0797
1002,0.1195
1003,0.1195
1004,0.0398
1005,0.0000
1006,-0.0199
1007,-0.1395
1008,-0.0398
1009,-0.1992
1010,-0.1793
1011,-0.1594
1012,-0.2191
1013,-0.1195
1014,-0.1992
1015,-0.2789
1016,-0.1992
1017,-0.1992
1018,-0.1195
1019,-0.1195
1020,0.0000
1021,0.0000
1022,0.0000
1023,0.0000
1024,-0.0996
1025,-0.2191
1026,-0.3387
1027,-0.3984
1028,-0.3188
1029,-0.1793
1030,-0.0199
1031,-0.0398
1032,-0.0598
1033,-0.0797
1034,-0.0996
1035,-0.0199
1036,0.1395
1037,0.0598
1038,-0.0199
1039,-0.0996
1040,-0.1195
1041,-0.2191
1042,-0.1793
1043,-0.0797
1044,-0.0996
1045,-0.1195
1046,-0.1793
1047,-0.2988
1048,-0.2590
1049,-0.1195
1050,-0.1195
1051,-0.1195
1052,-0.0996
1053,-0.0598
1054,-0.0398
1055,0.0996
1056,0.0797
1057,0.0996
1058,0.1992
1059,0.1395
1060,0.1992
1061,0.0996
1062,0.0996
1063,0.1195
1064,0.0398
1065,-0.0199
1066,-0.0996
1067,-0.1594
1068,-0.0996
1069,-0.0996
1070,-0.0199
1071,0.0398
1072,0.0199
1073,0.0199
1074,-0.1594
1075,-0.1594
1076,0.0398
1077,0.2191
1078,0.2191
1079,0.1594
1080,0.1395
1081,0.1395
1082,0.2590
1083,0.1195
1084,0.0598
1085,0.0598
1086,-0.1195
1087,-0.0598
1088,0.1395
1089,0.2391
1090,0.2590
1091,0.2191
1092,0.2191
1093,0.1992
1094,0.0598
1095,-0.0598
1096,-0.1793
1097,0.0199
1098,0.3785
1099,0.4184
1100,0.3387
1101,0.1992
1102,0.1594
1103,0.0398
1104,0.0398
1105,0.0797
1106,0.0598
1107,0.2191
1108,0.0398
1109,-0.2590
1110,-0.2789
1111,-0.0797
1112,0.0000
1113,0.0996
1114,0.0797
1115,0.0598
1116,0.0398
1117,-0.0996
1118,-0.1594
1119,-0.1793
1120,-0.0398
1121,0.0598
1122,0.1992
1123,0.2391
1124,0.2391
1125,0.1793
1126,0.1195
1127,0.1793
1128,0.1992
1129,0.0996
1130,0.1594
1131,0.0797
1132,0.0598
1133,0.0797
1134,0.0398
1135,0.0000
1136,-0.2590
1137,-0.3586
1138,-0.1594
1139,-0.0199
1140,-0.0199
1141,0.0398
1142,0.0598
1143,0.1195
1144,0.0199
1145,0.1992
1146,0.0199
1147,-0.2391
1148,-0.3387
1149,-0.2988
1150,-0.0797
1151,0.0398
1152,0.0996
1153,0.0000
1154,-0.3188
1155,-0.3984
1156,-0.2191
1157,0.1195
1158,0.2191
1159,0.2391
1160,0.2191
1161,0.1594
1162,0.0996
1163,0.1195
1164,-0.0199
1165,-0.1793
1166,-0.2191
1167,-0.1395
1168,0.0398
1169,0.1992
1170,0.3586
1171,0.3586
1172,0.2391
1173,0.1992
1174,0.1992
1175,0.3188
1176,0.2988
1177,0.2191
1178,0.2191
1179,0.1793
1180,0.1395
1181,-0.0598
1182,-0.1195
1183,-0.1992
1184,-0.0797
1185,0.0598
1186,0.0598
1187,-0.0199
1188,0.0398
1189,-0.0797
1190,-0.1992
1191,-0.1195
1192,-0.0797
1193,-0.0199
1194,-0.0996
1195,-0.0398
1196,0.0000
1197,-0.0199
1198,-0.0199
1199,-0.0199
1200,-0.0996
1201,-0.1195
1202,-0.1195
1203,-0.1195
1204,-0.0996
1205,-0.0996
1206,-0.1195
1207,-0.1395
1208,-0.2191
1209,-0.1992
1210,-0.1195
1211,-0.0398
1212,-0.0398
1213,0.0398
1214,0.0398
1215,-0.0398
1216,0.0797
1217,0.1793
1218,0.2391
1219,0.1992
1220,0.1594
1221,-0.0797
1222,-0.1594
1223,-0.2191
1224,-0.2789
1225,-0.5379
1226,-0.4980
1227,-0.1793
1228,-0.0598
1229,-0.1395
1230,-0.2391
1231,0.0398
1232,0.2789
1233,0.3188
1234,0.4383
1235,0.3188
1236,0.2590
1237,0.2988
1238,0.3586
1239,0.2391
1240,0.0996
1241,0.0199
1242,-0.2191
1243,-0.4980
1244,-0.4980
1245,-0.3586
1246,-0.2988
1247,-0.0996
1248,0.0598
1249,0.2191
1250,0.2988
1251,0.5180
1252,0.4184
1253,0.2789
1254,0.0598
1255,-0.0598
1256,-0.1793
1257,-0.0996
1258,-0.0398
1259,-0.0199
1260,-0.1195
1261,-0.3387
1262,-0.3387
1263,-0.2590
1264,-0.1594
1265,-0.0797
1266,-0.0199
1267,0.1594
1268,0.2590
1269,0.0797
1270,0.0797
1271,0.0199
1272,-0.0199
1273,0.0199
1274,-0.0398
1275,0.0000
1276,-0.0797
1277,-0.2191
1278,0.0199
1279,0.0398
1280,0.0199
1281,0.0000
1282,-0.0598
1283,-0.0199
1284,-0.0398
1285,-0.0398
1286,-0.0199
1287,-0.1395
1288,-0.2789
1289,-0.2590
1290,-0.0598
1291,0.0000
1292,-0.0598
1293,-0.0398
1294,0.0000
1295,0.0000
1296,0.0996
1297,0.1594
1298,0.2590
1299,0.2391
1300,0.1992
1301,0.0598
1302,-0.2988
1303,-0.1992
1304,-0.0996
1305,0.0797
1306,0.1992
1307,0.2391
1308,0.1992
1309,0.1594
1310,0.0598
1311,0.0598
1312,-0.0398
1313,-0.1195
1314,-0.1395
1315,-0.2789
1316,-0.2789
1317,-0.2988
1318,-0.3188
1319,-0.2988
1320,-0.2590
1321,-0.3188
1322,-0.2191
1323,0.0598
1324,0.1195
1325,0.1395
1326,0.2789
1327,0.2391
1328,0.0199
1329,-0.1992
1330,-0.1195
1331,0.0000
1332,-0.2391
1333,-0.0797
1334,0.0000
1335,0.1395
1336,0.1992
1337,0.1992
1338,0.2191
1339,0.1793
1340,0.0996
1341,0.0996
1342,0.0996
1343,0.1594
1344,0.0797
1345,-0.0398
1346,-0.1195
1347,-0.1195
1348,-0.0996
1349,-0.1793
1350,-0.2590
1351,-0.1793
1352,-0.1793
1353,-0.1992
1354,-0.1594
1355,-0.0996
1356,-0.1195
1357,-0.0797
1358,0.0398
1359,0.1395
1360,0.1793
1361,0.0000
1362,-0.0797
1363,-0.0797
1364,-0.0598
1365,-0.1195
1366,-0.1793
1367,-0.2191
1368,-0.1992
1369,-0.1992
1370,-0.1395
1371,-0.1992
1372,-0.0797
1373,0.0000
1374,0.0398
1375,0.1195
1376,0.1793
1377,0.1395
1378,0.0398
1379,-0.0598
1380,0.0398
1381,0.1195
1382,0.0598
1383,0.0398
1384,0.0199
1385,-0.0598
1386,-0.1793
1387,-0.3785
1388,-0.3785
1389,-0.2789
1390,-0.1195
1391,0.0398
1392,0.1395
1393,0.0797
1394,0.0996
1395,0.0199
1396,0.0797
1397,0.1395
1398,0.1195
1399,0.0797
1400,0.0000
1401,-0.0598
1402,0.0199
1403,-0.0398
1404,-0.0598
1405,-0.4184
1406,-0.3984
1407,-0.2590
1408,0.0199
1409,0.1395
1410,0.0797
1411,0.1992
1412,0.2191
1413,0.2590
1414,0.2391
1415,0.3387
1416,0.2391
1417,0.0797
1418,0.0598
1419,-0.0598
1420,-0.1992
1421,-0.2590
1422,-0.1395
1423,0.0598
1424,0.1992
1425,0.2391
1426,0.3188
1427,0.3785
1428,0.3785
1429,0.3188
1430,0.2391
1431,0.0996
1432,-0.1195
1433,-0.1992
1434,-0.2191
1435,-0.1594
1436,-0.1594
1437,-0.0996
1438,-0.1195
1439,-0.0199
1440,-0.0398
1441,-0.0797
1442,-0.1793
1443,-0.1195
1444,-0.1395
1445,-0.0797
1446,-0.0598
1447,0.0598
1448,0.0000
1449,-0.1793
1450,-0.1395
1451,-0.1395
1452,-0.0598
1453,-0.0199
1454,-0.0996
1455,0.0000
1456,0.0398
1457,-0.0398
1458,0.0000
1459,-0.0398
1460,0.0000
1461,-0.0199
1462,-0.0996
1463,-0.0199
1464,-0.0797
1465,-0.0996
1466,-0.0199
1467,0.1195
1468,0.2191
1469,0.2191
1470,0.2988
1471,0.2988
1472,0.2391
1473,0.3188
1474,0.2391
1475,-0.3188
1476,-0.4980
1477,-0.4781
1478,-0.3586
1479,-0.1992
1480,-0.0398
1481,0.1395
1482,0.1395
1483,0.0398
1484,0.0797
1485,0.3188
1486,0.4383
1487,0.3188
1488,0.1992
1489,0.1594
1490,0.0598
1491,0.0398
1492,-0.0797
1493,-0.1594
1494,-0.3785
1495,-0.6773
1496,-0.7969
1497,-0.7371
1498,-0.3785
1499,-0.1395
1500,0.0996
1501,0.1594
1502,0.1992
1503,0.1992
1504,0.1992
1505,0.1992
1506,0.2590
1507,0.2191
1508,0.1195
1509,0.1195
1510,0.0996
1511,-0.0398
1512,-0.1395
1513,-0.1992
1514,-0.1793
1515,-0.0996
1516,0.0000
1517,0.0000
1518,0.0598
1519,0.0199
1520,-0.0598
1521,-0.1395
1522,-0.1395
1523,-0.1395
1524,-0.2391
1525,-0.1793
1526,-0.2391
1527,-0.2191
1528,-0.1992
1529,-0.1992
1530,-0.1395
1531,-0.1793
1532,-0.0996
1533,-0.1395
1534,0.0000
1535,0.0996
1536,0.0598
1537,0.0199
1538,-0.1793
1539,-0.2391
1540,-0.1594
1541,-0.0797
1542,-0.0797
1543,-0.0598
1544,0.0797
1545,0.1395
1546,0.2789
1547,0.0199
1548,-0.0199
1549,0.1992
1550,0.4184
1551,0.3785
1552,0.1793
1553,0.0797
1554,-0.0398
1555,-0.1195
1556,-0.2391
1557,-0.2191
1558,-0.6574
1559,-0.6176
1560,-0.3785
1561,-0.0199
1562,0.2590
1563,0.2590
1564,0.2391
1565,0.2988
1566,0.2391
1567,0.0199
1568,-0.0598
1569,-0.0797
1570,0.0598
1571,-0.0199
1572,0.0000
1573,0.0598
1574,0.0000
1575,-0.0398
1576,-0.0598
1577,-0.0797
1578,-0.0797
1579,-0.1594
1580,-0.0797
1581,-0.0199
1582,-0.0598
1583,0.0000
1584,-0.1195
1585,-0.1594
1586,-0.0398
1587,-0.0797
1588,-0.0199
1589,0.0996
1590,0.1594
1591,0.1395
1592,0.0797
1593,0.1195
1594,0.0398
1595,0.0398
1596,-0.0598
1597,-0.0996
1598,-0.1594
1599,-0.2590
1600,-0.2391
1601,-0.2590
1602,-0.1395
1603,0.0797
1604,0.1195
1605,0.2590
1606,0.3188
1607,0.3586
1608,0.3586
1609,0.2191
1610,0.0398
1611,0.0000
1612,-0.1395
1613,-0.1195
1614,-0.2191
1615,-0.2789
1616,-0.1594
1617,-0.1793
1618,-0.3387
1619,-0.3586
1620,-0.2789
1621,-0.3586
1622,-0.2590
1623,-0.2391
1624,-0.3387
1625,-0.3586
1626,-0.2391
1627,-0.0797
1628,0.0996
1629,0.2590
1630,0.3387
1631,0.4184
1632,0.3188
1633,0.1992
1634,-0.0598
1635,-0.2590
1636,-0.1793
1637,-0.0398
1638,0.0398
1639,0.0797
1640,0.1195
1641,0.0398
1642,-0.1594
1643,-0.1793
1644,-0.0199
1645,-0.0797
1646,-0.2191
1647,-0.3387
1648,-0.3785
1649,-0.3785
1650,-0.4184
1651,-0.3984
1652,-0.2391
1653,-0.1195
1654,-0.0598
1655,0.0598
1656,0.0996
1657,0.0797
1658,0.0199
1659,-0.1195
1660,-0.0797
1661,-0.0598
1662,0.0199
1663,0.0000
1664,0.0000
1665,-0.0199
1666,-0.0398
1667,-0.0398
1668,-0.0797
1669,-0.0797
1670,-0.1594
1671,0.0398
1672,0.0398
1673,0.1195
1674,-0.0797
1675,-0.1395
1676,-0.1992
1677,-0.1594
1678,-0.0598
1679,0.0199
1680,0.0598
1681,0.0996
1682,0.0797
1683,0.1195
1684,0.1594
1685,0.2590
1686,0.2191
1687,0.0000
1688,-0.1594
1689,-0.1793
1690,-0.2191
1691,-0.2789
1692,-0.3387
1693,-0.3984
1694,-0.2191
1695,-0.1195
1696,-0.0996
1697,0.0598
1698,-0.0398
1699,-0.0797
1700,0.1992
1701,0.3586
1702,0.4184
1703,0.2988
1704,0.2191
1705,0.1195
1706,0.0797
1707,0.0199
1708,-0.0996
1709,-0.2590
1710,-0.2590
1711,-0.1793
1712,-0.0398
1713,-0.0598
1714,-0.0199
1715,-0.1395
1716,-0.2988
1717,-0.2590
1718,-0.1793
1719,-0.1793
1720,-0.2391
1721,-0.1195
1722,-0.0598
1723,0.0797
1724,0.0199
1725,-0.0598
1726,-0.1594
1727,0.0398
1728,0.1793
1729,0.2191
1730,0.3387
1731,0.3188
1732,0.1992
1733,0.1992
1734,0.2191
1735,0.1395
1736,-0.2391
1737,-0.4383
1738,-0.7172
1739,-0.6574
1740,-0.5379
1741,-0.3586
1742,-0.0996
1743,0.0797
1744,0.1793
1745,0.1594
1746,-0.0199
1747,0.2590
1748,0.3984
1749,0.2191
1750,0.2191
1751,0.1793
1752,0.1793
1753,0.1992
1754,0.0598
1755,-0.0996
1756,0.0797
1757,0.2590
1758,0.3586
1759,0.4980
1760,0.4980
1761,0.4582
1762,0.3785
1763,0.2988
1764,0.2789
1765,0.0996
1766,-0.0199
1767,-0.0398
1768,-0.0199
1769,-0.0996
1770,-0.0598
1771,-0.0199
1772,0.0199
1773,0.0000
1774,0.0000
1775,-0.0199
1776,-0.0199
1777,-0.0199
1778,0.0598
1779,-0.0398
1780,-0.0996
1781,-0.1195
1782,-0.1594
1783,-0.1395
1784,-0.0797
1785,0.0598
1786,0.0598
1787,0.0398
1788,-0.0398
1789,-0.0797
1790,-0.0996
1791,-0.0996
1792,-0.0199
1793,-0.0598
1794,-0.3387
1795,-0.5180
1796,-0.4383
1797,-0.4184
1798,-0.1594
1799,0.0398
1800,0.1594
1801,0.2590
1802,0.2590
1803,0.3785
1804,0.3984
1805,0.3586
1806,0.1793
1807,-0.0797
1808,-0.2988
1809,-0.4582
1810,-0.2988
1811,-0.1395
1812,-0.1395
1813,-0.0199
1814,0.0797
1815,0.2391
1816,0.2590
1817,0.4184
1818,0.4781
1819,0.4383
1820,0.3586
1821,0.1992
1822,0.2191
1823,0.0000
1824,0.0199
1825,-0.0797
1826,-0.4582
1827,-0.4184
1828,-0.0996
1829,0.0000
1830,0.1992
1831,0.2789
1832,0.2789
1833,0.3188
1834,0.2191
1835,0.1992
1836,0.0996
1837,-0.1395
1838,-0.1395
1839,0.0000
1840,0.0598
1841,0.0797
1842,0.0199
1843,-0.0199
1844,-0.0797
1845,-0.0996
1846,-0.1594
1847,-0.1594
1848,0.0000
1849,0.0598
1850,0.1594
1851,0.1395
1852,0.1992
1853,0.1395
1854,0.0797
1855,0.0398
1856,-0.1195
1857,-0.0797
1858,-0.0996
1859,-0.1395
1860,-0.1793
1861,-0.1195
1862,-0.1395
1863,-0.2391
1864,-0.2590
1865,-0.1195
1866,-0.0398
1867,0.0199
1868,0.0598
1869,-0.1594
1870,-0.3387
1871,-0.5777
1872,-0.4184
1873,-0.1992
1874,-0.1195
1875,0.0199
1876,0.0797
1877,0.1395
1878,0.1395
1879,0.3984
1880,0.3785
1881,0.3586
1882,0.2391
1883,0.2391
1884,0.2590
1885,0.2391
1886,-0.0398
1887,-0.3387
1888,-0.3785
1889,-0.6375
1890,-0.5578
1891,-0.4383
1892,-0.2391
1893,0.0000
1894,0.0996
1895,0.2191
1896,0.1395
1897,0.0598
1898,0.0398
1899,0.0000
1900,0.0398
1901,-0.0996
1902,-0.1395
1903,-0.0797
1904,-0.1395
1905,-0.0398
1906,0.0398
1907,0.1395
1908,0.1195
1909,0.1195
1910,0.0996
1911,0.1195
1912,0.1594
1913,0.1594
1914,0.0996
1915,0.0000
1916,-0.0797
1917,-0.2988
1918,-0.1992
1919,-0.1195
1920,0.0000
1921,0.1395
1922,0.1195
1923,0.1195
1924,0.0398
1925,-0.0398
1926,0.0000
1927,0.0797
1928,0.1395
1929,0.1395
1930,0.1594
1931,0.0598
1932,-0.0598
1933,-0.1395
1934,-0.2391
1935,-0.3586
1936,-0.5977
1937,-0.6574
1938,-0.6375
1939,-0.5379
1940,-0.2988
1941,-0.0797
1942,0.0398
1943,0.0996
1944,0.0000
1945,-0.0199
1946,-0.0199
1947,0.0996
1948,0.0398
1949,-0.1395
1950,-0.0199
1951,-0.1195
1952,-0.1594
1953,-0.2191
1954,-0.0199
1955,0.1992
1956,0.3586
1957,0.2391
1958,0.1395
1959,0.0996
1960,0.0000
1961,-0.1395
1962,-0.2590
1963,-0.5180
1964,-0.5977
1965,-0.3785
1966,-0.1992
1967,-0.0398
1968,-0.0797
1969,-0.4582
1970,-0.4781
1971,-0.3188
1972,0.0199
1973,0.2789
1974,0.3387
1975,0.2988
1976,0.2789
1977,0.4383
1978,0.3785
1979,0.2590
1980,0.1793
1981,0.1395
1982,0.1992
1983,0.1992
1984,0.1195
1985,0.1395
1986,0.1195
1987,-0.0598
1988,-0.0199
1989,0.0199
1990,-0.0398
1991,0.0199
1992,0.0398
1993,0.0797
1994,0.0398
1995,-0.0797
1996,-0.3984
1997,-0.5578
1998,-0.4184
1999,-0.2191
2000,0.0398
2001,0.1992
2002,0.2391
2003,0.2789
2004,0.1793
2005,0.2391
2006,0.1195
2007,-0.0199
2008,0.0000
2009,-0.0598
2010,-0.0199
2011,0.0199
2012,-0.0398
2013,0.0199
2014,0.0199
2015,0.0598
2016,-0.0598
2017,-0.1395
2018,-0.1195
2019,-0.1395
2020,-0.0797
2021,0.0199
2022,0.0199
2023,-0.0598
2024,0.0398
2025,0.0797
2026,0.0996
2027,0.0797
2028,0.0598
2029,0.0598
2030,0.0797
2031,0.0000
2032,-0.0398
2033,-0.0996
2034,-0.0598
2035,0.0398
2036,0.2789
2037,0.2988
2038,-0.0398
2039,-0.0996
2040,-0.0797
2041,0.1195
2042,0.4184
2043,0.5180
2044,0.5977
2045,0.4980
2046,0.2590
2047,-0.0797
2048,-0.1594
2049,-0.2590
2050,-0.1195
2051,-0.1195
2052,0.0996
2053,0.1992
2054,0.1793
2055,0.0797
2056,0.2988
2057,0.4383
2058,0.4582
2059,0.3586
2060,0.1992
2061,0.0199
2062,-0.2191
2063,-0.3586
2064,-0.3785
2065,-0.2391
2066,-0.0797
2067,0.0598
2068,0.2191
2069,0.2590
2070,0.2590
2071,0.1395
2072,0.1195
2073,0.0996
2074,0.0996
2075,0.1992
2076,0.2590
2077,0.1594
2078,0.0199
2079,-0.2590
2080,-0.3984
2081,-0.2590
2082,-0.1594
2083,-0.0598
2084,0.0398
2085,-0.0598
2086,-0.1594
2087,-0.0797
2088,0.0797
2089,0.1594
2090,0.2191
2091,0.2988
2092,0.2191
2093,0.1992
2094,0.1195
2095,0.0000
2096,-0.1395
2097,-0.2590
2098,-0.0996
2099,0.0398
2100,0.0797
2101,-0.2391
2102,-0.3785
2103,-0.2988
2104,-0.1594
2105,0.0398
2106,0.0598
2107,0.0797
2108,0.0797
2109,0.0996
2110,0.1195
2111,0.0996
2112,0.0598
2113,0.0797
2114,0.0996
2115,0.0797
2116,0.0598
2117,0.0797
2118,0.0199
2119,-0.0199
2120,-0.1594
2121,-0.3984
2122,-0.2391
2123,-0.0598
2124,0.0398
2125,0.1793
2126,0.2590
2127,0.1992
2128,0.1594
2129,0.1195
2130,0.0000
2131,0.0398
2132,0.0996
2133,0.2789
2134,0.4383
2135,0.4781
2136,0.3586
2137,0.2391
2138,0.1793
2139,0.0996
2140,0.0996
2141,0.0797
2142,-0.0996
2143,-0.2391
2144,-0.1395
2145,-0.0797
2146,0.0398
2147,0.0000
2148,-0.0199
2149,-0.0398
2150,-0.1594
2151,-0.0996
2152,-0.1195
2153,-0.1395
2154,-0.1195
2155,-0.0996
2156,-0.0199
2157,0.0598
2158,0.0598
2159,-0.1395
2160,-0.1594
2161,-0.1992
2162,-0.1793
2163,-0.1195
2164,-0.1992
2165,-0.2191
2166,-0.2191
2167,-0.1793
2168,0.0199
2169,0.0598
2170,0.0398
2171,0.0199
2172,-0.0996
2173,-0.1992
2174,-0.0797
2175,-0.0398
2176,0.0797
2177,0.0199
2178,-0.0199
2179,0.0199
2180,-0.0797
2181,-0.2191
2182,-0.4184
2183,-0.2590
2184,-0.1195
2185,-0.0598
2186,0.0797
2187,0.0199
2188,0.0000
2189,-0.1395
2190,-0.1195
2191,-0.2191
2192,-0.4980
2193,-0.5977
2194,-0.3586
2195,-0.2191
2196,0.0398
2197,0.1594
2198,0.1594
2199,0.1395
2200,0.0598
2201,0.0000
2202,-0.0797
2203,-0.0996
2204,-0.1395
2205,-0.1195
2206,-0.0797
2207,0.0000
2208,0.0797
2209,0.1793
2210,0.1395
2211,0.0598
2212,-0.1195
2213,-0.2391
2214,-0.1195
2215,-0.0199
2216,0.0598
2217,-0.0398
2218,-0.0199
2219,-0.0398
2220,0.0598
2221,0.1195
2222,0.1395
2223,0.1594
2224,0.0797
2225,-0.0199
2226,-0.1793
2227,-0.1195
2228,-0.0598
2229,0.0398
2230,0.1195
2231,0.1992
2232,-0.0199
2233,-0.1395
2234,-0.1992
2235,-0.0598
2236,-0.0199
2237,-0.0797
2238,0.0797
2239,0.0598
2240,-0.0797
2241,-0.0797
2242,-0.1195
2243,0.0000
2244,0.0398
2245,0.0000
2246,0.0000
2247,0.0000
2248,-0.1195
2249,-0.4184
2250,-0.4781
2251,-0.2789
2252,-0.2391
2253,-0.1992
2254,-0.1594
2255,-0.0797
2256,-0.1594
2257,-0.2590
2258,-0.1594
2259,-0.0797
2260,0.0398
2261,-0.0797
2262,-0.2590
2263,-0.2988
2264,-0.3984
2265,-0.3785
2266,-0.2590
2267,-0.0797
2268,0.0598
2269,0.1195
2270,0.0598
2271,0.1793
2272,0.1594
2273,0.0598
2274,-0.0996
2275,-0.2191
2276,-0.2191
2277,-0.2590
2278,-0.0996
2279,-0.1395
2280,-0.1793
2281,-0.0996
2282,0.0000
2283,0.0199
2284,0.0000
2285,0.1395
2286,0.0996
2287,-0.0398
2288,-0.0598
2289,-0.0199
2290,0.0398
2291,0.0000
2292,0.0000
2293,0.0199
2294,0.0398
2295,-0.0797
2296,-0.2590
2297,-0.1793
2298,-0.0797
2299,0.0199
2300,0.1395
2301,0.1395
2302,0.2391
2303,0.2391
2304,0.2789
2305,0.3586
2306,0.2988
2307,0.1793
2308,0.1793
2309,0.1395
2310,0.0598
2311,0.0996
2312,0.0797
2313,0.0598
2314,-0.0398
2315,-0.0797
2316,-0.2590
2317,-0.2988
2318,-0.2590
2319,-0.1992
2320,-0.1793
2321,-0.3188
2322,-0.3984
2323,-0.2191
2324,0.1395
2325,0.2988
2326,0.2789
2327,0.2590
2328,0.2789
2329,0.1793
2330,0.2391
2331,0.2789
2332,0.0996
2333,0.0000
2334,-0.1395
2335,-0.1793
2336,-0.2191
2337,-0.5180
2338,-0.6773
2339,-0.8168
2340,-0.5977
2341,-0.2988
2342,0.1395
2343,0.2191
2344,0.1992
2345,0.2391
2346,0.2988
2347,0.1793
2348,0.1594
2349,0.1594
2350,0.0398
2351,-0.0996
2352,-0.2988
2353,-0.0398
2354,0.0598
2355,0.1594
2356,0.1992
2357,0.1992
2358,0.2590
2359,0.2988
2360,0.2391
2361,0.1793
2362,-0.0199
2363,0.0000
2364,0.0199
2365,0.0199
2366,-0.0598
2367,-0.2191
2368,-0.1992
2369,-0.3188
2370,-0.3387
2371,-0.1992
2372,-0.0598
2373,0.0996
2374,0.2191
2375,0.2590
2376,0.2191
2377,0.1594
2378,0.1395
2379,0.0996
2380,0.1793
2381,0.1992
2382,0.1594
2383,0.0398
2384,-0.0199
2385,0.1195
2386,0.1793
2387,0.1195
2388,0.1195
2389,0.1195
2390,0.0199
2391,-0.0199
2392,-0.0996
2393,-0.1195
2394,-0.1793
2395,-0.3387
2396,-0.2391
2397,-0.2988
2398,-0.2789
2399,-0.1992
2400,-0.0398
2401,0.0598
2402,0.0398
2403,0.0398
2404,0.0398
2405,0.0199
2406,0.0000
2407,0.0398
2408,-0.0797
2409,-0.1793
2410,-0.3586
2411,-0.4383
2412,-0.1594
2413,0.0996
2414,0.2191
2415,0.2988
2416,0.2789
2417,0.1594
2418,0.1594
2419,0.0598
2420,-0.0598
2421,-0.0996
2422,-0.0797
2423,0.0199
2424,0.1395
2425,0.1395
2426,0.1793
2427,0.2789
2428,0.2191
2429,0.0398
2430,0.0398
2431,0.0199
2432,-0.0199
2433,0.0000
2434,0.0598
2435,0.0797
2436,0.1195
2437,0.0797
2438,0.0398
2439,0.0797
2440,0.0797
2441,0.0398
2442,0.0598
2443,-0.0398
2444,0.0797
2445,0.1195
2446,0.0996
2447,-0.0199
2448,-0.0199
2449,0.1793
2450,0.3586
2451,0.3984
2452,0.2789
2453,0.1793
2454,-0.0797
2455,-0.0797
2456,-0.1594
2457,-0.2988
2458,-0.1395
2459,-0.0199
2460,0.1992
2461,0.2988
2462,0.0797
2463,-0.1992
2464,-0.3188
2465,-0.1395
2466,0.0398
2467,0.1992
2468,0.2988
2469,0.2988
2470,0.3586
2471,0.2789
2472,0.0598
2473,-0.0996
2474,-0.3387
2475,-0.1395
2476,-0.0598
2477,0.0000
2478,0.0398
2479,0.0598
2480,0.0199
2481,-0.3785
2482,-0.3188
2483,-0.1594
2484,0.0000
2485,0.2191
2486,0.1195
2487,0.0199
2488,0.1195
2489,0.1195
2490,0.0199
2491,-0.0398
2492,-0.0398
2493,-0.0797
2494,-0.2391
2495,-0.3387
2496,-0.4383
2497,-0.3387
2498,-0.3387
2499,-0.0996
2500,-0.0797
2501,0.0398
2502,0.2391
2503,0.0398
2504,-0.1992
2505,-0.1992
2506,-0.3785
2507,-0.2988
2508,-0.2590
2509,0.0199
2510,0.1395
2511,0.2988
2512,0.5977
2513,0.6574
2514,0.3586
2515,0.2988
2516,0.1992
2517,0.0797
2518,0.0797
2519,0.0199
2520,0.0996
2521,0.0398
2522,-0.0199
2523,-0.0598
2524,-0.2590
2525,-0.4582
2526,-0.5379
2527,-0.1992
2528,0.0598
2529,0.2590
2530,0.3984
2531,0.4781
2532,0.4383
2533,0.4383
2534,0.2590
2535,0.1195
2536,0.0598
2537,0.0797
2538,0.0000
2539,-0.0797
2540,-0.2191
2541,-0.3188
2542,-0.2590
2543,-0.1793
2544,-0.1594
2545,-0.0996
2546,-0.1195
2547,-0.0398
2548,0.0598
2549,0.0398
2550,0.0199
2551,0.0000
2552,0.0000
2553,0.0199
2554,0.0996
2555,-0.1395
2556,-0.4184
2557,-0.3785
2558,-0.2191
2559,0.0000
2560,0.0797
2561,-0.0398
2562,0.0598
2563,0.2391
2564,0.2391
2565,0.3586
2566,0.2988
2567,0.1992
2568,0.1793
2569,0.1195
2570,0.0199
2571,-0.1395
2572,-0.4383
2573,-0.6973
2574,-0.4582
2575,-0.1992
2576,0.0398
2577,0.1992
2578,0.2590
2579,0.2789
2580,0.2988
2581,0.2191
2582,0.1195
2583,-0.0199
2584,-0.3188
2585,-0.3984
2586,-0.3586
2587,-0.5379
2588,-0.5379
2589,-0.4582
2590,-0.2191
2591,0.0598
2592,0.2391
2593,0.3387
2594,0.4383
2595,0.3586
2596,0.0797
2597,-0.0797
2598,0.0199
2599,0.0598
2600,-0.0996
2601,-0.1992
2602,-0.1195
2603,-0.0199
2604,0.0398
2605,0.1992
2606,0.2391
2607,0.3188
2608,0.3387
2609,0.2789
2610,0.3387
2611,0.2590
2612,0.0797
2613,0.0398
2614,0.0398
2615,-0.0398
2616,-0.0398
2617,-0.0996
2618,-0.1594
2619,-0.1793
2620,-0.2391
2621,-0.2191
2622,-0.2590
2623,-0.1793
2624,-0.2590
2625,-0.4184
2626,-0.1992
2627,-0.0996
2628,-0.0199
2629,0.0398
2630,-0.0199
2631,-0.0398
2632,-0.0199
2633,-0.0797
2634,-0.1793
2635,-0.1793
2636,-0.3586
2637,-0.4582
2638,-0.6176
2639,-0.4383
2640,-0.0797
2641,0.0797
2642,0.1594
2643,0.2789
2644,0.1793
2645,0.0797
2646,-0.0199
2647,-0.0996
2648,-0.1395
2649,-0.2789
2650,-0.4184
2651,-0.4781
2652,-0.5578
2653,-0.2988
2654,-0.1395
2655,-0.0199
2656,0.1992
2657,0.2391
2658,0.3188
2659,0.2789
2660,0.2789
2661,0.2391
2662,0.0996
2663,-0.0797
2664,-0.2391
2665,-0.3188
2666,-0.3785
2667,-0.4781
2668,-0.2590
2669,-0.1992
2670,-0.0398
2671,0.0398
2672,0.0598
2673,0.0598
2674,-0.1195
2675,-0.3188
2676,-0.0598
2677,0.1793
2678,0.3984
2679,0.4184
2680,0.2789
2681,0.1395
2682,0.0199
2683,-0.1594
2684,-0.3586
2685,-0.2391
2686,-0.0996
2687,0.0000
2688,0.0199
2689,0.0797
2690,0.1395
2691,0.2191
2692,0.2191
2693,0.1793
2694,0.0598
2695,0.0598
2696,0.1395
2697,0.0598
2698,0.0996
2699,0.1395
2700,0.1992
2701,0.1594
2702,0.0996
2703,0.0000
2704,-0.1195
2705,-0.3188
2706,-0.3188
2707,-0.2590
2708,-0.1992
2709,-0.0398
2710,-0.0398
2711,0.0199
2712,0.0797
2713,0.1992
2714,0.2191
2715,0.2391
2716,0.1195
2717,0.0398
2718,-0.0199
2719,-0.0199
2720,-0.0199
2721,0.0000
2722,-0.0199
2723,-0.2391
2724,-0.4383
2725,-0.4781
2726,-0.3586
2727,-0.0797
2728,0.0398
2729,-0.0797
2730,-0.1992
2731,-0.0797
2732,0.1195
2733,0.1395
2734,0.1395
2735,0.1594
2736,0.0398
2737,0.0398
2738,0.1395
2739,0.1195
2740,0.1992
2741,0.1992
2742,0.1793
2743,0.0199
2744,-0.0199
2745,0.0000
2746,0.0996
2747,0.1195
2748,0.1594
2749,0.2191
2750,0.2789
2751,0.2590
2752,0.0797
2753,-0.1594
2754,-0.2191
2755,-0.1594
2756,-0.1195
2757,0.0797
2758,0.1594
2759,0.1195
2760,0.0797
2761,0.0000
2762,0.1395
2763,0.1992
2764,0.2391
2765,0.1992
2766,0.1195
2767,0.1395
2768,0.2191
2769,0.1793
2770,0.1195
2771,0.0199
2772,-0.0996
2773,-0.1395
2774,-0.1395
2775,-0.0598
2776,-0.0398
2777,-0.0797
2778,-0.1195
2779,-0.1195
2780,-0.1195
2781,-0.0598
2782,-0.0797
2783,-0.1195
2784,-0.2590
2785,-0.2391
2786,-0.2191
2787,-0.2988
2788,-0.2590
2789,-0.2590
2790,-0.0598
2791,0.0797
2792,0.1992
2793,0.2391
2794,0.1195
2795,0.0797
2796,0.0598
2797,-0.0199
2798,-0.2391
2799,-0.2590
2800,-0.2191
2801,-0.1793
2802,-0.0598
2803,0.0199
2804,-0.1195
2805,-0.3188
2806,-0.4582
2807,-0.3984
2808,-0.2988
2809,-0.2789
2810,-0.2988
2811,-0.4383
2812,-0.2789
2813,0.0598
2814,0.1195
2815,0.1793
2816,-0.0398
2817,-0.4184
2818,-0.4980
2819,-0.2590
2820,0.0797
2821,0.0199
2822,-0.3586
2823,-0.5180
2824,-0.2988
2825,0.0996
2826,0.3984
2827,0.5777
2828,0.5977
2829,0.5777
2830,0.5578
2831,0.3188
2832,0.2590
2833,0.1992
2834,0.1195
2835,0.0598
2836,0.0797
2837,0.0398
2838,-0.0598
2839,-0.0398
2840,-0.0398
2841,0.0000
2842,0.1594
2843,0.1594
2844,0.0996
2845,0.0797
2846,0.0000
2847,-0.0598
2848,-0.0199
2849,0.0199
2850,0.1195
2851,0.1195
2852,0.0797
2853,0.0797
2854,0.0996
2855,-0.0199
2856,-0.0996
2857,-0.2988
2858,-0.2191
2859,-0.1395
2860,0.0398
2861,0.2191
2862,0.2191
2863,0.2391
2864,0.1793
2865,0.1395
2866,0.0598
2867,-0.0797
2868,-0.0199
2869,0.0199
2870,0.1195
2871,0.1992
2872,0.2391
2873,0.1594
2874,0.0598
2875,0.0797
2876,0.1395
2877,0.0996
2878,0.0598
2879,-0.0199
2880,-0.0797
2881,-0.1195
2882,-0.1395
2883,-0.2191
2884,-0.3785
2885,-0.4582
2886,-0.2789
2887,-0.1395
2888,-0.0398
2889,-0.0598
2890,-0.1594
2891,-0.1395
2892,-0.0996
2893,0.0000
2894,0.1395
2895,0.1992
2896,0.1395
2897,0.0598
2898,-0.0398
2899,-0.2191
2900,-0.2988
2901,-0.5379
2902,-0.3387
2903,0.0598
2904,0.3984
2905,0.5578
2906,0.5578
2907,0.4582
2908,0.2789
2909,-0.1594
2910,-0.0996
2911,0.0199
2912,0.2391
2913,0.2590
2914,0.2590
2915,0.2590
2916,0.1992
2917,0.1594
2918,0.2988
2919,0.4184
2920,0.3785
2921,0.2988
2922,0.0598
2923,-0.0398
2924,-0.1195
2925,-0.0797
2926,-0.1395
2927,-0.2391
2928,-0.2789
2929,-0.1395
2930,-0.1395
2931,-0.0398
2932,-0.0797
2933,-0.0598
2934,-0.1395
2935,-0.1992
2936,-0.3188
2937,-0.5578
2938,-0.5977
2939,-0.4980
2940,-0.3984
2941,-0.2590
2942,-0.1793
2943,-0.2191
2944,-0.1594
2945,-0.0598
2946,-0.0797
2947,-0.0598
2948,-0.1793
2949,-0.3387
2950,-0.4383
2951,-0.6375
2952,-0.8367
2953,-0.5977
2954,-0.2590
2955,0.0000
2956,0.0398
2957,0.0199
2958,0.0199
2959,0.1395
2960,0.2789
2961,0.2191
2962,0.2191
2963,0.2191
2964,0.0398
2965,-0.2391
2966,-0.6375
2967,-0.7172
2968,-0.7371
2969,-0.3984
2970,0.1195
2971,0.4383
2972,0.5777
2973,0.5578
2974,0.5180
2975,0.3586
2976,0.4383
2977,0.3586
2978,0.2988
2979,0.1594
2980,0.1195
2981,0.1195
2982,0.1594
2983,0.0797
2984,0.0996
2985,0.0598
2986,-0.1195
2987,-0.2590
2988,-0.5379
2989,-0.6176
2990,-0.5578
2991,-0.4781
2992,-0.3188
2993,-0.2391
2994,-0.0996
2995,-0.0398
2996,0.0797
2997,0.1395
2998,0.1992
2999,0.0598
3000,0.0000
3001,-0.0199
3002,-0.0598
3003,-0.0797
3004,-0.1992
3005,-0.0797
3006,-0.0797
3007,-0.1793
3008,-0.1594
3009,-0.1594
3010,-0.0797
3011,-0.0199
3012,0.0398
3013,0.0598
3014,0.0996
3015,0.0398
3016,-0.0996
3017,-0.6176
3018,-0.7770
3019,-0.4980
3020,-0.4184
3021,-0.2590
3022,-0.2191
3023,-0.0199
3024,0.2789
3025,0.4781
3026,0.6973
3027,0.6574
3028,0.1793
3029,-0.0199
3030,0.0000
3031,-0.2988
3032,-0.1992
3033,0.0398
3034,0.1992
3035,0.3984
3036,0.4781
3037,0.4781
3038,0.3188
3039,0.0797
3040,0.0000
3041,-0.0996
3042,-0.2191
3043,-0.2191
3044,-0.0996
3045,-0.0797
3046,0.0199
3047,-0.0598
3048,-0.1992
3049,-0.1992
3050,0.0000
3051,0.1195
3052,0.3785
3053,0.5777
3054,0.5977
3055,0.6773
3056,0.6176
3057,0.5777
3058,0.4980
3059,0.2988
3060,0.1594
3061,0.1195
3062,0.1594
3063,0.0996
3064,-0.0398
3065,-0.0199
3066,-0.0598
3067,-0.0996
3068,-0.0797
3069,-0.1195
3070,-0.0199
3071,0.0000
3072,-0.0199
3073,0.0000
3074,-0.0398
3075,-0.0598
3076,0.0000
3077,0.0598
3078,0.0797
3079,0.0996
3080,0.1395
3081,0.1594
3082,0.1992
3083,0.0996
3084,0.0199
3085,-0.1793
3086,-0.1395
3087,-0.0398
3088,0.0199
3089,-0.0598
3090,-0.0996
3091,-0.0996
3092,0.0199
3093,0.0199
3094,-0.0996
3095,0.0598
3096,-0.0398
3097,0.0199
3098,0.2191
3099,0.3387
3100,0.3387
3101,0.2590
3102,0.2191
3103,0.1793
3104,0.0797
3105,-0.0199
3106,-0.0996
3107,-0.1594
3108,-0.1594
3109,-0.2191
3110,-0.1992
3111,-0.2391
3112,-0.1992
3113,-0.3387
3114,-0.6375
3115,-0.4582
3116,-0.2789
3117,-0.0199
3118,0.1992
3119,0.1594
3120,0.1195
3121,-0.1793
3122,-0.1395
3123,-0.4383
3124,-0.5777
3125,-0.4781
3126,-0.3586
3127,-0.1195
3128,0.1195
3129,0.1992
3130,0.2590
3131,0.2988
3132,0.2391
3133,0.1195
3134,-0.0398
3135,-0.0996
3136,-0.1793
3137,-0.2391
3138,-0.2988
3139,-0.2590
3140,-0.1992
3141,-0.1395
3142,-0.1195
3143,0.0398
3144,-0.0398
3145,-0.0797
3146,-0.0398
3147,-0.1395
3148,-0.1594
3149,-0.2391
3150,-0.3387
3151,-0.2391
3152,-0.1195
3153,-0.0199
3154,0.0598
3155,0.0598
3156,0.1395
3157,0.0797
3158,0.0398
3159,0.0199
3160,-0.0398
3161,0.0000
3162,0.0598
3163,0.0199
3164,-0.1594
3165,-0.1594
3166,-0.0797
3167,-0.0199
3168,0.0000
3169,-0.0797
3170,-0.0996
3171,-0.0996
3172,-0.1195
3173,0.0598
3174,0.0797
3175,0.0398
3176,-0.0398
3177,-0.0398
3178,-0.0398
3179,-0.1992
3180,-0.4582
3181,-0.5180
3182,-0.3586
3183,-0.3188
3184,-0.2391
3185,-0.0398
3186,0.1992
3187,0.3586
3188,0.3984
3189,0.2988
3190,0.1793
3191,-0.0598
3192,-0.0797
3193,-0.1992
3194,-0.0398
3195,0.0797
3196,0.0598
3197,-0.0996
3198,-0.1992
3199,-0.1395
3200,0.1793
3201,0.2789
3202,0.2590
3203,0.1195
3204,-0.1195
3205,-0.2391
3206,-0.3387
3207,-0.0797
3208,0.0996
3209,0.2391
3210,0.3984
3211,0.3586
3212,0.1992
3213,0.0797
3214,0.1195
3215,0.2391
3216,0.2191
3217,0.2191
3218,0.1395
3219,0.0797
3220,0.0398
3221,-0.0398
3222,-0.1195
3223,-0.1395
3224,-0.3188
3225,-0.1594
3226,-0.0199
3227,0.1195
3228,0.1793
3229,0.1395
3230,0.0797
3231,0.0797
3232,0.0598
3233,0.0000
3234,0.0996
3235,-0.0199
3236,-0.0398
3237,0.0000
3238,-0.0797
3239,-0.0598
3240,-0.1992
3241,-0.3586
3242,-0.2988
3243,-0.2191
3244,-0.0797
3245,0.1195
3246,0.0000
3247,-0.3984
3248,-0.5180
3249,-0.2789
3250,0.0199
3251,0.3785
3252,0.4582
3253,0.4383
3254,0.4781
3255,0.5379
3256,0.5578
3257,0.4980
3258,0.3586
3259,0.2391
3260,0.1594
3261,0.0797
3262,0.0199
3263,-0.2391
3264,-0.4184
3265,-0.2988
3266,-0.2590
3267,-0.2789
3268,-0.2391
3269,-0.1992
3270,-0.1195
3271,-0.3785
3272,-0.4184
3273,-0.2391
3274,-0.0996
3275,-0.0598
3276,-0.3188
3277,-0.4582
3278,-0.2191
3279,0.0797
3280,0.4184
3281,0.5379
3282,0.4582
3283,0.4582
3284,0.3387
3285,0.1793
3286,0.0996
3287,0.0398
3288,-0.2590
3289,-0.4383
3290,-0.3984
3291,-0.1793
3292,0.0398
3293,0.2590
3294,0.2191
3295,0.0598
3296,-0.0398
3297,-0.0199
3298,0.0797
3299,0.0199
3300,-0.0398
3301,-0.1195
3302,-0.3387
3303,-0.4781
3304,-0.3984
3305,-0.2391
3306,-0.0598
3307,0.1793
3308,0.4582
3309,0.4781
3310,0.3984
3311,0.3785
3312,0.2789
3313,0.2391
3314,-0.0797
3315,-0.1992
3316,-0.1992
3317,-0.2191
3318,0.0199
3319,0.2789
3320,0.4184
3321,0.4184
3322,0.3586
3323,0.2391
3324,0.1793
3325,0.0598
3326,-0.2988
3327,-0.3984
3328,-0.4383
3329,-0.6375
3330,-0.9363
3331,-1.0957
3332,-0.8965
3333,-0.5180
3334,-0.0598
3335,0.2789
3336,0.5180
3337,0.5977
3338,0.5180
3339,0.4582
3340,0.3387
3341,0.1793
3342,-0.1395
3343,-0.3188
3344,-0.1195
3345,0.1594
3346,0.3387
3347,0.2191
3348,0.1793
3349,0.0000
3350,-0.2391
3351,-0.3586
3352,-0.3188
3353,-0.2590
3354,-0.2789
3355,-0.3785
3356,-0.3188
3357,-0.3586
3358,-0.1992
3359,-0.2191
3360,-0.2391
3361,-0.3188
3362,-0.4184
3363,-0.4980
3364,-0.2590
3365,-0.1395
3366,0.0598
3367,0.1793
3368,0.2789
3369,0.3984
3370,0.4383
3371,0.5379
3372,0.4980
3373,0.5180
3374,0.4582
3375,0.3387
3376,0.2191
3377,0.0797
3378,0.0598
3379,-0.0398
3380,-0.1594
3381,-0.1992
3382,-0.2391
3383,-0.2191
3384,-0.2391
3385,-0.2789
3386,-0.2789
3387,-0.2391
3388,-0.1195
3389,0.0598
3390,0.2391
3391,0.2789
3392,0.2191
3393,0.1395
3394,-0.1195
3395,-0.0398
3396,-0.0598
3397,0.0598
3398,0.0797
3399,0.0199
3400,0.0199
3401,-0.0199
3402,-0.0996
3403,0.0398
3404,0.2391
3405,0.3387
3406,0.3785
3407,0.2590
3408,0.0398
3409,0.0598
3410,0.0398
3411,-0.0598
3412,-0.0598
3413,-0.0598
3414,-0.1992
3415,-0.2988
3416,-0.2988
3417,-0.2590
3418,-0.1594
3419,0.0000
3420,0.0797
3421,0.0199
3422,-0.0996
3423,-0.0598
3424,-0.0398
3425,-0.0398
3426,-0.0199
3427,0.0598
3428,-0.0996
3429,-0.1594
3430,-0.0598
3431,0.0000
3432,0.1395
3433,0.2191
3434,0.1594
3435,0.0398
3436,0.0598
3437,0.0199
3438,-0.0996
3439,-0.1195
3440,-0.0996
3441,-0.0996
3442,-0.0398
3443,-0.2191
3444,-0.5379
3445,-0.6574
3446,-0.4781
3447,-0.2988
3448,0.0398
3449,0.1793
3450,0.2988
3451,0.3188
3452,0.3188
3453,0.3188
3454,0.2391
3455,0.2191
3456,0.0797
3457,0.0398
3458,-0.1793
3459,-0.4582
3460,-0.3586
3461,-0.1395
3462,0.0996
3463,0.2391
3464,0.3586
3465,0.3188
3466,0.1594
3467,0.0797
3468,0.0199
3469,-0.0598
3470,-0.3586
3471,-0.3785
3472,-0.1793
3473,0.0000
3474,0.0996
3475,0.0398
3476,-0.0598
3477,-0.3387
3478,-0.3586
3479,-0.1195
3480,0.1395
3481,0.3387
3482,0.3785
3483,0.1793
3484,-0.2391
3485,-0.5180
3486,-0.4582
3487,-0.1195
3488,0.0398
3489,0.2391
3490,0.3586
3491,0.2391
3492,0.2590
3493,0.2391
3494,0.2191
3495,0.1195
3496,0.0598
3497,-0.1395
3498,-0.1594
3499,-0.1594
3500,-0.2590
3501,-0.1793
3502,-0.2590
3503,-0.5379
3504,-0.5180
3505,-0.1594
3506,0.0797
3507,0.1395
3508,0.1793
3509,0.1992
3510,0.1992
3511,0.0797
3512,-0.1195
3513,-0.1594
3514,-0.3188
3515,-0.2191
3516,-0.1195
3517,-0.0199
3518,0.0398
3519,0.0000
3520,-0.0996
3521,-0.0996
3522,-0.1395
3523,-0.1395
3524,-0.2590
3525,-0.4383
3526,-0.5180
3527,-0.4184
3528,-0.3586
3529,-0.2191
3530,-0.0398
3531,0.0000
3532,0.1793
3533,0.0598
3534,-0.0797
3535,-0.0996
3536,0.0398
3537,0.4383
3538,0.5777
3539,0.4184
3540,0.2191
3541,-0.0797
3542,-0.1992
3543,-0.5180
3544,-0.6375
3545,-0.4383
3546,-0.0996
3547,-0.0199
3548,0.0797
3549,0.2391
3550,0.1594
3551,0.2590
3552,0.1594
3553,0.2988
3554,0.3586
3555,0.3984
3556,0.4383
3557,0.1992
3558,0.0398
3559,-0.0797
3560,-0.0996
3561,-0.0398
3562,-0.2789
3563,-0.4383
3564,-0.6375
3565,-0.3586
3566,-0.0598
3567,0.2391
3568,0.5180
3569,0.5777
3570,0.5777
3571,0.6375
3572,0.5977
3573,0.6176
3574,0.4184
3575,0.3387
3576,0.2590
3577,0.1395
3578,0.0199
3579,0.0000
3580,-0.1594
3581,-0.3188
3582,-0.2789
3583,-0.2590
3584,-0.1594
3585,-0.1195
3586,-0.0598
3587,-0.0996
3588,-0.0398
3589,-0.0398
3590,-0.0199
3591,-0.0398
3592,-0.0398
3593,-0.0199
3594,0.0199
3595,0.0000
3596,-0.1195
3597,-0.1992
3598,-0.1992
3599,-0.1793
3600,-0.3188
3601,-0.4184
3602,-0.1594
3603,0.0598
3604,0.1594
3605,0.2789
3606,0.3188
3607,0.2191
3608,0.0996
3609,0.0000
3610,-0.0996
3611,-0.3387
3612,-0.7371
3613,-1.0160
3614,-0.8367
3615,-0.4383
3616,-0.1195
3617,0.1793
3618,0.3188
3619,0.3586
3620,0.2590
3621,0.0398
3622,-0.0797
3623,-0.0996
3624,-0.1793
3625,-0.2988
3626,-0.2191
3627,0.0000
3628,0.0797
3629,0.1395
3630,0.0000
3631,0.0199
3632,-0.0398
3633,-0.0598
3634,-0.0199
3635,-0.0797
3636,-0.2191
3637,-0.2391
3638,-0.2988
3639,-0.1992
3640,-0.1793
3641,-0.1395
3642,-0.1992
3643,-0.2590
3644,-0.1992
3645,-0.0598
3646,-0.0598
3647,-0.0598
3648,-0.0199
3649,0.0000
3650,0.0199
3651,0.0598
3652,0.0199
3653,-0.0199
3654,-0.0797
3655,-0.1195
3656,-0.0598
3657,-0.0598
3658,-0.0199
3659,-0.0199
3660,0.0598
3661,0.0398
3662,0.0199
3663,0.0598
3664,0.0797
3665,0.1395
3666,0.1395
3667,-0.0199
3668,0.0398
3669,0.0199
3670,0.0598
3671,0.0199
3672,0.0598
3673,0.0398
3674,0.0398
3675,0.0199
3676,-0.1793
3677,-0.5777
3678,-0.7172
3679,-0.4980
3680,-0.2590
3681,0.0199
3682,0.1992
3683,0.2988
3684,0.1992
3685,0.1793
3686,0.2191
3687,0.1395
3688,0.1195
3689,0.2590
3690,0.4383
3691,0.5578
3692,0.4383
3693,0.1992
3694,0.0598
3695,-0.1195
3696,-0.1992
3697,0.0398
3698,0.0398
3699,0.1195
3700,0.1793
3701,0.2391
3702,0.2590
3703,0.2789
3704,0.1195
3705,-0.1992
3706,-0.3387
3707,-0.2590
3708,-0.0199
3709,0.1594
3710,0.1992
3711,0.1793
3712,-0.0398
3713,-0.3188
3714,-0.6176
3715,-0.2789
3716,-0.0199
3717,0.1992
3718,0.3387
3719,0.4383
3720,0.3785
3721,0.2789
3722,0.1793
3723,0.1594
3724,-0.0398
3725,-0.1594
3726,-0.0199
3727,0.0996
3728,0.0598
3729,-0.0797
3730,-0.1992
3731,-0.2391
3732,-0.1992
3733,-0.0996
3734,0.0199
3735,0.0797
3736,0.1793
3737,0.3387
3738,0.4184
3739,0.5977
3740,0.5379
3741,0.2988
3742,0.1992
3743,0.0996
3744,-0.0797
3745,-0.5180
3746,-0.8566
3747,-0.9563
3748,-0.7969
3749,-0.6375
3750,-0.3586
3751,-0.0398
3752,0.1395
3753,0.2191
3754,0.2191
3755,0.2391
3756,0.1992
3757,0.1992
3758,0.1395
3759,0.1793
3760,-0.0199
3761,-0.2590
3762,-0.2988
3763,-0.2590
3764,-0.1793
3765,-0.1195
3766,-0.0598
3767,0.0000
3768,0.0199
3769,-0.1992
3770,-0.1395
3771,-0.1195
3772,-0.2191
3773,-0.1395
3774,-0.0398
3775,-0.0199
3776,-0.1195
3777,-0.1992
3778,-0.2590
3779,-0.2590
3780,-0.2191
3781,-0.1395
3782,0.0000
3783,-0.0199
3784,-0.0199
3785,-0.0199
3786,-0.0598
3787,-0.0398
3788,-0.0996
3789,-0.1992
3790,-0.0797
3791,0.0199
3792,0.0996
3793,0.2391
3794,0.2789
3795,0.3188
3796,0.2590
3797,0.2391
3798,0.1992
3799,0.0000
3800,-0.3387
3801,-0.4383
3802,-0.3984
3803,-0.2391
3804,-0.0996
3805,0.0000
3806,0.0000
3807,0.0996
3808,0.0797
3809,0.0199
3810,0.1793
3811,0.2191
3812,0.1594
3813,0.0797
3814,-0.2789
3815,-0.3188
3816,-0.0996
3817,0.0199
3818,0.0598
3819,0.0199
3820,0.0797
3821,0.0996
3822,0.0996
3823,0.1195
3824,0.0797
3825,0.0996
3826,0.1395
3827,0.1195
3828,0.0797
3829,0.0199
3830,-0.0398
3831,-0.0797
3832,-0.1195
3833,0.0199
3834,0.0000
3835,0.0000
3836,-0.0199
3837,-0.0598
3838,-0.0199
3839,0.0199
3840,0.0398
3841,0.1395
3842,0.0996
3843,0.0598
3844,-0.0199
3845,-0.1395
3846,-0.1793
3847,-0.2590
3848,-0.1992
3849,-0.0996
3850,0.0398
3851,0.1992
3852,0.2391
3853,0.2789
3854,0.1992
3855,-0.0996
3856,-0.3387
3857,-0.3387
3858,0.0199
3859,0.3984
3860,0.5777
3861,0.5578
3862,0.5180
3863,0.4980
3864,0.3586
3865,0.0797
3866,-0.1395
3867,-0.3387
3868,-0.2789
3869,-0.3984
3870,-0.6973
3871,-0.6773
3872,-0.3984
3873,-0.0598
3874,0.1195
3875,0.2789
3876,0.4582
3877,0.6176
3878,0.5578
3879,0.2590
3880,0.0398
3881,-0.0398
3882,-0.2191
3883,-0.1195
3884,-0.0199
3885,0.0398
3886,0.1395
3887,0.1594
3888,0.1395
3889,0.0797
3890,0.0000
3891,-0.0797
3892,0.0000
3893,0.0996
3894,0.0199
3895,0.0398
3896,-0.0199
3897,0.0199
3898,0.0199
3899,-0.0199
3900,0.0000
3901,-0.0398
3902,-0.0797
3903,-0.0797
3904,-0.1195
3905,-0.2191
3906,-0.2789
3907,-0.2191
3908,-0.1992
3909,-0.1395
3910,0.0000
3911,0.1195
3912,0.2191
3913,0.2391
3914,0.1793
3915,0.1195
3916,0.1793
3917,0.1594
3918,0.0797
3919,-0.0996
3920,-0.1195
3921,-0.0199
3922,0.0996
3923,0.1195
3924,0.0398
3925,0.0199
3926,0.0199
3927,0.1793
3928,0.1992
3929,0.2391
3930,0.2191
3931,-0.0199
3932,-0.1395
3933,-0.1395
3934,-0.1992
3935,-0.2789
3936,-0.3188
3937,-0.2590
3938,-0.1395
3939,0.0000
3940,-0.0598
3941,-0.1594
3942,-0.3188
3943,-0.6375
3944,-0.5578
3945,-0.3387
3946,-0.1992
3947,-0.1793
3948,-0.0199
3949,0.0996
3950,0.1992
3951,0.2789
3952,0.1594
3953,-0.0199
3954,-0.0398
3955,0.0797
3956,0.0996
3957,0.1594
3958,0.0996
3959,0.0000
3960,-0.0199
3961,-0.0598
3962,-0.0996
3963,-0.0996
3964,-0.1793
3965,-0.1594
3966,-0.1395
3967,-0.0996
3968,-0.1992
3969,-0.3188
3970,-0.2391
3971,-0.0996
3972,-0.0598
3973,-0.0199
3974,-0.0797
3975,-0.0797
3976,-0.0598
3977,0.0598
3978,0.0598
3979,0.0398
3980,0.0797
3981,0.0598
3982,0.0797
3983,0.1395
3984,0.0199
3985,0.0398
3986,-0.1395
3987,-0.2988
3988,-0.1594
3989,-0.0996
3990,0.0398
3991,0.0598
3992,0.0398
3993,-0.0199
3994,-0.0398
3995,-0.1195
3996,-0.0598
3997,-0.0398
3998,-0.0598
3999,-0.1793
4000,0.0598
4001,0.0398
4002,0.0000
4003,0.0000
4004,-0.0598
4005,-0.0996
4006,-0.1195
4007,-0.4184
4008,-0.5777
4009,-0.4184
4010,-0.2789
4011,-0.0797
4012,-0.0598
4013,-0.0797
4014,-0.0398
4015,0.0000
4016,0.1793
4017,-0.0598
4018,-0.0797
4019,-0.0199
4020,-0.0199
4021,-0.0199
4022,-0.0398
4023,-0.0598
4024,-0.1195
4025,0.0598
4026,0.1992
4027,0.2391
4028,0.2191
4029,0.0398
4030,0.0598
4031,0.2590
4032,0.2988
4033,0.1594
4034,-0.0199
4035,-0.0398
4036,-0.0398
4037,-0.0598
4038,-0.0996
4039,-0.2590
4040,-0.2391
4041,-0.2789
4042,-0.2191
4043,-0.0199
4044,-0.1195
4045,-0.2590
4046,-0.5578
4047,-0.3586
4048,-0.1195
4049,0.1195
4050,0.2391
4051,0.2191
4052,0.1594
4053,0.0598
4054,-0.0199
4055,0.0797
4056,0.1594
4057,0.1793
4058,0.1594
4059,0.1992
4060,0.1793
4061,0.1195
4062,0.0598
4063,0.0398
4064,-0.0199
4065,-0.0598
4066,0.0996
4067,0.1195
4068,0.0797
4069,0.0199
4070,-0.1195
4071,-0.2191
4072,-0.2391
4073,-0.1793
4074,-0.0996
4075,-0.0398
4076,0.0398
4077,0.0797
4078,0.1594
4079,0.1793
4080,0.1992
4081,0.1395
4082,0.0598
4083,-0.0199
4084,-0.2191
4085,-0.0996
4086,-0.0199
4087,0.0199
4088,0.0797
4089,0.1395
4090,0.2191
4091,0.1992
4092,0.2590
4093,0.1793
4094,0.0996
4095,0.0199
4096,-0.0398
4097,0.0000
4098,-0.0398
4099,-0.0398
4100,0.0199
4101,0.0398
4102,0.0797
4103,0.1992
4104,0.2391
4105,0.1195
4106,-0.1395
4107,-0.2391
4108,-0.2590
4109,-0.1395
4110,0.0398
4111,0.0199
4112,0.1793
4113,0.2191
4114,0.2391
4115,0.4184
4116,0.4582
4117,0.4184
4118,0.4383
4119,0.3785
4120,0.1793
4121,0.0199
4122,-0.1195
4123,-0.1395
4124,-0.1992
4125,-0.1793
4126,-0.1195
4127,-0.0598
4128,-0.0199
4129,-0.0398
4130,-0.0398
4131,-0.1395
4132,0.0000
4133,0.1793
4134,0.1793
4135,-0.0598
4136,-0.2789
4137,-0.3188
4138,-0.1793
4139,0.0398
4140,0.2789
4141,0.3785
4142,0.4383
4143,0.3984
4144,0.4184
4145,0.3586
4146,0.1992
4147,0.1594
4148,0.0996
4149,0.0598
4150,-0.0398
4151,-0.1992
4152,-0.2191
4153,-0.2191
4154,-0.1793
4155,-0.1594
4156,-0.1992
4157,-0.1992
4158,-0.2191
4159,-0.0797
4160,-0.0996
4161,0.0199
4162,0.0000
4163,0.0598
4164,-0.0598
4165,-0.0398
4166,-0.0797
4167,-0.0996
4168,-0.0598
4169,0.0000
4170,0.1594
4171,0.0598
4172,0.0398
4173,-0.0199
4174,-0.0797
4175,-0.1992
4176,-0.1992
4177,-0.1793
4178,-0.1594
4179,-0.1395
4180,0.0996
4181,0.1594
4182,0.1195
4183,0.0797
4184,0.0598
4185,0.0199
4186,-0.0797
4187,-0.2789
4188,-0.3188
4189,-0.4184
4190,-0.3387
4191,-0.0996
4192,0.0199
4193,0.1992
4194,0.3586
4195,0.1793
4196,-0.0598
4197,-0.0199
4198,0.0000
4199,-0.0598
4200,-0.1793
4201,-0.1992
4202,0.0000
4203,0.2789
4204,0.3984
4205,0.2789
4206,0.0598
4207,-0.1195
4208,-0.0996
4209,0.0797
4210,0.1992
4211,0.2391
4212,0.2590
4213,0.1992
4214,0.2988
4215,0.2789
4216,0.0199
4217,-0.0797
4218,-0.0199
4219,-0.0797
4220,-0.0398
4221,-0.0398
4222,0.0000
4223,0.1195
4224,0.1992
4225,0.2988
4226,0.1793
4227,0.0199
4228,-0.0199
4229,-0.1793
4230,-0.1594
4231,-0.1793
4232,-0.2191
4233,-0.1992
4234,-0.1992
4235,-0.2191
4236,-0.2789
4237,-0.2789
4238,-0.2191
4239,-0.1594
4240,-0.1195
4241,-0.0398
4242,0.0000
4243,0.0000
4244,0.0598
4245,0.1195
4246,0.0797
4247,0.1195
4248,0.1594
4249,0.0996
4250,-0.0199
4251,0.0598
4252,0.0398
4253,0.0000
4254,-0.0996
4255,-0.1594
4256,-0.1793
4257,-0.0199
4258,-0.2391
4259,-0.3188
4260,-0.2988
4261,-0.2590
4262,-0.1395
4263,-0.1195
4264,-0.1793
4265,-0.1594
4266,-0.1992
4267,-0.3188
4268,-0.2789
4269,-0.2988
4270,-0.1195
4271,-0.1594
4272,-0.2391
4273,-0.1793
4274,-0.1594
4275,-0.1195
4276,0.1395
4277,0.2391
4278,0.2391
4279,0.1395
4280,0.0398
4281,-0.1793
4282,-0.4383
4283,-0.3586
4284,-0.1594
4285,0.0797
4286,0.1594
4287,0.1594
4288,0.1793
4289,0.2590
4290,0.2988
4291,0.2391
4292,0.1793
4293,0.0797
4294,-0.0797
4295,-0.1395
4296,-0.1594
4297,-0.1195
4298,-0.0398
4299,-0.0398
4300,-0.0398
4301,-0.0797
4302,-0.1594
4303,-0.1992
4304,-0.2191
4305,-0.1793
4306,-0.1992
4307,-0.1793
4308,-0.1195
4309,-0.0398
4310,-0.0598
4311,-0.0598
4312,-0.0598
4313,-0.0797
4314,-0.0598
4315,0.0000
4316,0.0000
4317,-0.0199
4318,-0.2391
4319,-0.3586
4320,-0.3387
4321,-0.1992
4322,-0.1395
4323,-0.0598
4324,-0.1395
4325,-0.0797
4326,-0.1395
4327,-0.1594
4328,-0.0797
4329,-0.0598
4330,0.0199
4331,0.0398
4332,0.0000
4333,0.0598
4334,0.0598
4335,0.0598
4336,0.0199
4337,-0.4184
4338,-0.5777
4339,-0.5977
4340,-0.4582
4341,-0.1594
4342,0.1793
4343,0.3586
4344,0.5180
4345,0.5578
4346,0.4582
4347,0.4383
4348,0.3984
4349,0.3785
4350,0.2590
4351,0.1395
4352,-0.0598
4353,-0.0797
4354,-0.2391
4355,-0.4184
4356,-0.2789
4357,-0.1594
4358,0.0000
4359,0.0797
4360,0.0996
4361,0.0398
4362,-0.0199
4363,0.0598
4364,0.1195
4365,0.1992
4366,0.1395
4367,0.1793
4368,0.1395
4369,0.0398
4370,-0.2191
4371,-0.3785
4372,-0.2590
4373,-0.1195
4374,0.0598
4375,0.0398
4376,0.1195
4377,0.0996
4378,0.1395
4379,0.0598
4380,0.0797
4381,0.0598
4382,-0.0398
4383,-0.1195
4384,-0.1793
4385,-0.1793
4386,-0.2191
4387,-0.2391
4388,-0.3188
4389,-0.3188
4390,-0.2789
4391,-0.2391
4392,-0.1793
4393,-0.0996
4394,-0.0398
4395,-0.1195
4396,0.0000
4397,0.0996
4398,0.1594
4399,0.1395
4400,0.0996
4401,0.1594
4402,-0.0996
4403,0.0000
4404,0.1793
4405,0.1195
4406,0.0598
4407,0.0797
4408,0.2590
4409,0.2988
4410,0.2988
4411,0.2789
4412,0.2988
4413,0.1793
4414,0.1195
4415,-0.0797
4416,-0.1195
4417,-0.1793
4418,-0.1395
4419,0.0000
4420,0.1395
4421,0.2391
4422,0.3188
4423,0.4184
4424,0.3586
4425,0.3387
4426,0.3785
4427,0.3785
4428,0.3586
4429,0.3785
4430,0.3984
4431,0.3586
4432,0.3984
4433,0.4383
4434,0.3785
4435,0.3188
4436,0.1992
4437,0.1992
4438,0.2590
4439,0.1992
4440,0.1594
4441,0.1793
4442,0.0199
4443,-0.1395
4444,0.0000
4445,-0.0598
4446,-0.0797
4447,-0.0797
4448,-0.0797
4449,-0.0398
4450,0.1195
4451,0.1395
4452,0.0199
4453,-0.1793
4454,-0.3785
4455,-0.3188
4456,-0.2789
4457,-0.1395
4458,-0.0598
4459,-0.0598
4460,-0.0996
4461,-0.0797
4462,0.0000
4463,0.0199
4464,-0.0598
4465,0.3387
4466,0.5777
4467,0.6773
4468,0.6176
4469,0.5777
4470,0.3586
4471,0.2191
4472,0.0000
4473,0.0000
4474,0.0000
4475,-0.0996
4476,-0.1395
4477,0.0000
4478,0.0000
4479,-0.0398
4480,-0.1793
4481,-0.4383
4482,-0.4184
4483,-0.1594
4484,0.0000
4485,0.1793
4486,0.1793
4487,0.0996
4488,0.0797
4489,0.1992
4490,0.2789
4491,0.3586
4492,0.4184
4493,0.4980
4494,0.4781
4495,0.3387
4496,0.2191
4497,0.1395
4498,0.1395
4499,0.0398
4500,0.0398
4501,-0.0199
4502,-0.0398
4503,-0.1992
4504,-0.1395
4505,-0.0996
4506,-0.2191
4507,-0.2988
4508,-0.2590
4509,-0.2590
4510,-0.2191
4511,-0.1395
4512,-0.0996
4513,0.0000
4514,-0.0398
4515,-0.1195
4516,-0.1793
4517,-0.2988
4518,-0.4383
4519,-0.6375
4520,-0.5777
4521,-0.4184
4522,-0.3785
4523,-0.2590
4524,-0.3188
4525,-0.2789
4526,-0.1395
4527,-0.2590
4528,-0.1793
4529,0.0199
4530,0.2191
4531,0.2590
4532,0.2391
4533,0.0996
4534,-0.0996
4535,-0.1395
4536,-0.3984
4537,-0.4383
4538,-0.2988
4539,-0.1594
4540,-0.0199
4541,0.0199
4542,0.0398
4543,0.0000
4544,-0.0996
4545,-0.2789
4546,-0.3188
4547,-0.3586
4548,-0.3586
4549,-0.3387
4550,-0.1992
4551,-0.1594
4552,-0.0797
4553,-0.0598
4554,-0.0398
4555,-0.0398
4556,-0.0398
4557,0.0000
4558,0.0398
4559,0.0598
4560,0.0797
4561,0.0398
4562,0.1793
4563,0.0996
4564,0.0000
4565,0.0398
4566,-0.0598
4567,-0.0398
4568,-0.2191
4569,-0.2789
4570,-0.2191
4571,-0.1992
4572,-0.1793
4573,-0.1195
4574,-0.1992
4575,-0.0996
4576,-0.0996
4577,-0.1594
4578,-0.1395
4579,-0.2590
4580,-0.2391
4581,-0.2391
4582,-0.1793
4583,-0.2590
4584,-0.2988
4585,-0.2191
4586,-0.2391
4587,-0.1395
4588,-0.3984
4589,-0.5578
4590,-0.5180
4591,-0.2191
4592,0.0996
4593,0.3785
4594,0.4383
4595,0.3984
4596,0.1195
4597,0.0199
4598,-0.0199
4599,0.0797
4600,0.0398
4601,0.0199
4602,-0.1793
4603,-0.1992
4604,-0.0996
4605,-0.0398
4606,0.0996
4607,-0.0199
4608,-0.0996
4609,-0.1395
4610,-0.0398
4611,-0.0398
4612,-0.0199
4613,-0.0398
4614,-0.0598
4615,0.0000
4616,0.0000
4617,0.0996
4618,0.0398
4619,0.0598
4620,-0.1395
4621,-0.2789
4622,-0.3586
4623,-0.1594
4624,-0.0598
4625,0.0598
4626,0.0996
4627,0.0996
4628,0.1395
4629,0.2191
4630,0.3188
4631,0.2590
4632,0.1992
4633,0.1195
4634,-0.0199
4635,-0.2590
4636,-0.2391
4637,-0.2988
4638,-0.5379
4639,-0.5777
4640,-0.3188
4641,-0.1395
4642,-0.0598
4643,0.0398
4644,0.0996
4645,0.0797
4646,-0.0996
4647,-0.2391
4648,-0.2191
4649,-0.0797
4650,0.0797
4651,0.0996
4652,0.0797
4653,0.0398
4654,0.0797
4655,0.0797
4656,0.0000
4657,-0.1195
4658,-0.1793
4659,-0.2391
4660,-0.2391
4661,-0.3586
4662,-0.1195
4663,0.1195
4664,0.1992
4665,0.2789
4666,0.2789
4667,0.2391
4668,0.0598
4669,-0.0996
4670,-0.0996
4671,-0.2590
4672,-0.4980
4673,-0.4184
4674,-0.2590
4675,-0.3387
4676,-0.2590
4677,-0.1395
4678,-0.0199
4679,-0.1992
4680,-0.7172
4681,-0.7371
4682,-0.3984
4683,0.0398
4684,0.3188
4685,0.5777
4686,0.5977
4687,0.5977
4688,0.4980
4689,0.2988
4690,0.1992
4691,-0.0797
4692,-0.1395
4693,-0.0797
4694,0.0199
4695,0.1395
4696,0.1594
4697,0.0996
4698,0.1594
4699,0.3188
4700,0.4781
4701,0.4582
4702,0.4383
4703,0.4184
4704,0.2590
4705,0.1793
4706,0.2391
4707,0.2191
4708,0.1395
4709,0.0398
4710,-0.0598
4711,-0.1195
4712,-0.1992
4713,-0.0996
4714,-0.0398
4715,0.0199
4716,0.0598
4717,0.0398
4718,0.0996
4719,0.2191
4720,0.1992
4721,0.0000
4722,-0.1992
4723,-0.2391
4724,-0.2988
4725,-0.2191
4726,-0.2191
4727,-0.2391
4728,-0.2988
4729,-0.5180
4730,-0.7969
4731,-0.5180
4732,-0.2590
4733,0.0199
4734,0.1992
4735,0.1793
4736,0.1395
4737,0.0996
4738,-0.1195
4739,-0.3387
4740,-0.2988
4741,-0.2191
4742,-0.0996
4743,-0.0797
4744,0.0996
4745,0.0996
4746,0.1992
4747,0.1793
4748,0.1195
4749,0.0000
4750,-0.1395
4751,-0.2789
4752,-0.4980
4753,-0.5777
4754,-0.3387
4755,-0.1594
4756,0.0000
4757,0.1395
4758,0.2590
4759,0.2988
4760,0.2191
4761,-0.1793
4762,-0.6176
4763,-0.7172
4764,-0.6773
4765,-0.6375
4766,-0.3586
4767,-0.0398
4768,0.2789
4769,0.4582
4770,0.4781
4771,0.4184
4772,0.2789
4773,0.1793
4774,0.0398
4775,0.0398
4776,0.0398
4777,-0.0996
4778,-0.1195
4779,0.0199
4780,0.1594
4781,0.1992
4782,0.2590
4783,0.2789
4784,0.1793
4785,0.1395
4786,0.0797
4787,-0.0199
4788,-0.1594
4789,-0.1195
4790,-0.0797
4791,-0.0199
4792,-0.0996
4793,-0.3387
4794,-0.3785
4795,-0.2988
4796,-0.0797
4797,0.0797
4798,0.3188
4799,0.4781
4800,0.4184
4801,0.3188
4802,0.1992
4803,0.2391
4804,0.0598
4805,-0.0398
4806,-0.0398
4807,-0.0598
4808,0.0398
4809,0.0996
4810,0.0797
4811,0.0598
4812,-0.0398
4813,-0.1793
4814,-0.3984
4815,-0.4582
4816,-0.2988
4817,-0.1992
4818,-0.0797
4819,-0.0398
4820,0.1195
4821,0.0199
4822,-0.0797
4823,-0.0598
4824,0.0797
4825,0.1992
4826,0.1793
4827,0.1992
4828,0.1395
4829,0.0398
4830,0.0000
4831,0.0598
4832,0.0598
4833,-0.0797
4834,0.0398
4835,0.0797
4836,0.0199
4837,-0.2391
4838,-0.3387
4839,-0.3984
4840,-0.2988
4841,-0.1395
4842,-0.0797
4843,0.1195
4844,0.3387
4845,0.2789
4846,0.2789
4847,0.2191
4848,0.2191
4849,0.2988
4850,0.2988
4851,0.2191
4852,0.0797
4853,-0.0398
4854,-0.0598
4855,-0.3586
4856,-0.4980
4857,-0.3387
4858,-0.1992
4859,-0.1195
4860,0.0199
4861,0.1395
4862,0.1195
4863,0.1395
4864,0.1195
4865,0.1195
4866,0.1594
4867,0.1992
4868,0.2191
4869,0.1195
4870,-0.0398
4871,-0.1195
4872,-0.1195
4873,-0.2191
4874,-0.3984
4875,-0.3785
4876,-0.3387
4877,-0.2191
4878,0.0598
4879,0.1395
4880,0.2590
4881,0.2988
4882,0.2789
4883,0.1594
4884,0.0398
4885,-0.1195
4886,-0.2789
4887,-0.4781
4888,-0.5379
4889,-0.5180
4890,-0.3785
4891,-0.3188
4892,-0.1395
4893,0.0199
4894,0.0398
4895,0.1594
4896,0.1992
4897,0.2988
4898,0.1992
4899,0.0398
4900,-0.1594
4901,-0.2590
4902,-0.1594
4903,-0.0398
4904,0.1395
4905,0.1395
4906,0.0996
4907,0.1195
4908,0.1195
4909,0.2191
4910,0.3586
4911,0.1594
4912,-0.1195
4913,-0.2191
4914,-0.2590
4915,-0.0996
4916,0.0598
4917,0.0797
4918,0.1195
4919,0.1195
4920,-0.1195
4921,-0.0199
4922,0.3188
4923,0.5180
4924,0.6574
4925,0.6574
4926,0.5777
4927,0.3984
4928,0.1793
4929,-0.0398
4930,-0.1992
4931,-0.3188
4932,-0.2988
4933,-0.1992
4934,-0.0199
4935,0.1195
4936,0.1793
4937,0.1594
4938,0.1195
4939,0.1395
4940,0.0996
4941,0.0000
4942,-0.0398
4943,0.0598
4944,-0.0398
4945,-0.1395
4946,-0.0398
4947,0.0398
4948,0.1793
4949,0.1594
4950,0.0598
4951,-0.0598
4952,-0.0199
4953,0.0000
4954,0.0797
4955,0.1195
4956,0.2191
4957,0.2391
4958,0.2391
4959,0.2191
4960,0.1793
4961,0.0398
4962,-0.0598
4963,-0.0199
4964,0.0000
4965,0.0398
4966,0.0398
4967,0.0398
4968,0.0199
4969,0.0398
4970,0.0000
4971,0.0598
4972,0.0000
4973,-0.0797
4974,-0.1992
4975,-0.2590
4976,-0.2789
4977,-0.3984
4978,-0.4383
4979,-0.3188
4980,-0.1793
4981,0.0398
4982,0.1594
4983,0.2391
4984,0.0398
4985,0.1793
4986,0.3586
4987,0.4582
4988,0.5777
4989,0.4781
4990,0.3984
4991,0.1594
4992,-0.0199
4993,-0.0598
4994,-0.1195
4995,-0.1594
4996,-0.1594
4997,0.0000
4998,0.1594
4999,0.1395
5000,0.0598
5001,-0.0398
5002,-0.0598
5003,0.0000
5004,-0.0199
5005,-0.0199
5006,-0.1195
5007,-0.2590
5008,-0.2988
5009,-0.3387
5010,-0.4582
5011,-0.4383
5012,-0.3387
5013,-0.1195
5014,0.0598
5015,0.1992
5016,0.2391
5017,0.2391
5018,0.3387
5019,0.4383
5020,0.5379
5021,0.4980
5022,0.1594
5023,-0.0199
5024,-0.0398
5025,-0.0199
5026,0.0199
5027,0.0797
5028,0.2590
5029,0.4184
5030,0.3586
5031,0.2590
5032,0.0996
5033,-0.0398
5034,-0.1793
5035,-0.1395
5036,-0.0398
5037,-0.0598
5038,-0.1195
5039,-0.2391
5040,-0.2191
5041,-0.1793
5042,-0.1395
5043,-0.0996
5044,-0.1594
5045,-0.0797
5046,-0.0398
5047,0.0199
5048,-0.1395
5049,-0.1992
5050,-0.3188
5051,-0.2789
5052,-0.1992
5053,-0.1195
5054,0.0199
5055,0.1594
5056,0.2191
5057,0.1395
5058,0.0996
5059,0.0000
5060,-0.1195
5061,-0.2191
5062,-0.2590
5063,-0.2391
5064,-0.2391
5065,-0.1594
5066,-0.0996
5067,-0.0199
5068,-0.0398
5069,-0.0398
5070,-0.1793
5071,-0.2391
5072,-0.2789
5073,-0.3586
5074,-0.3785
5075,-0.3785
5076,-0.3586
5077,-0.3785
5078,-0.3586
5079,-0.4781
5080,-0.5379
5081,-0.5180
5082,-0.4582
5083,-0.2789
5084,-0.1195
5085,-0.0598
5086,0.0598
5087,0.1793
5088,0.1793
5089,-0.0797
5090,-0.2391
5091,-0.2391
5092,-0.0598
5093,0.0199
5094,0.0398
5095,0.1793
5096,0.2789
5097,0.3785
5098,0.2988
5099,0.1793
5100,-0.0996
5101,-0.3785
5102,-0.4980
5103,-0.2789
5104,-0.0598
5105,0.1195
5106,0.2988
5107,0.3188
5108,0.2590
5109,0.1594
5110,0.0797
5111,-0.2590
5112,-0.6574
5113,-0.7172
5114,-0.5379
5115,-0.2590
5116,-0.0996
5117,-0.0398
5118,0.0199
5119,0.0000
5120,-0.1594
5121,-0.1195
5122,-0.1195
5123,-0.2191
5124,-0.2789
5125,-0.2391
5126,-0.1992
5127,-0.1594
5128,-0.0996
5129,-0.0797
5130,-0.0797
5131,-0.0199
5132,0.0598
5133,0.0797
5134,0.0398
5135,0.0199
5136,-0.0398
5137,-0.0199
5138,-0.0199
5139,0.0797
5140,0.1195
5141,0.1395
5142,0.1395
5143,0.1395
5144,0.0598
5145,0.0797
5146,0.0797
5147,0.0398
5148,0.0398
5149,0.0199
5150,-0.0398
5151,-0.1195
5152,-0.0996
5153,-0.0996
5154,-0.1992
5155,-0.4383
5156,-0.5977
5157,-0.6574
5158,-0.5578
5159,-0.4383
5160,-0.2789
5161,0.0797
5162,0.2988
5163,0.5777
5164,0.5777
5165,0.4184
5166,0.3387
5167,0.3984
5168,0.2988
5169,0.2988
5170,0.2988
5171,0.2191
5172,0.1594
5173,0.0398
5174,-0.1195
5175,-0.2988
5176,-0.2191
5177,-0.1594
5178,-0.0398
5179,0.0996
5180,0.0996
5181,0.0398
5182,0.1594
5183,0.0398
5184,0.0000
5185,0.0996
5186,0.1793
5187,0.3188
5188,0.2988
5189,0.2789
5190,0.2391
5191,0.1594
5192,-0.0598
5193,-0.1793
5194,-0.1793
5195,-0.0199
5196,0.0996
5197,0.1195
5198,0.1594
5199,0.1395
5200,0.0598
5201,0.0598
5202,-0.0199
5203,0.0199
5204,-0.0199
5205,-0.0598
5206,-0.0398
5207,-0.0398
5208,-0.0199
5209,-0.0797
5210,0.0199
5211,0.0598
5212,0.0199
5213,-0.0199
5214,-0.0199
5215,0.0000
5216,0.0000
5217,0.0398
5218,0.0598
5219,0.1594
5220,0.2191
5221,0.2590
5222,0.1793
5223,0.1395
5224,0.1195
5225,0.0398
5226,-0.0797
5227,-0.1594
5228,-0.1992
5229,-0.1793
5230,-0.0598
5231,0.0000
5232,0.0398
5233,0.0398
5234,-0.0797
5235,-0.2789
5236,-0.4582
5237,-0.3387
5238,-0.1793
5239,-0.2789
5240,-0.1594
5241,-0.0598
5242,0.1594
5243,0.3387
5244,0.4582
5245,0.4383
5246,0.3984
5247,0.3984
5248,0.2988
5249,0.1395
5250,0.0398
5251,0.0199
5252,0.0797
5253,-0.0598
5254,0.0199
5255,0.0996
5256,0.0598
5257,-0.1195
5258,-0.0199
5259,0.0797
5260,0.1594
5261,0.1992
5262,0.0996
5263,0.0398
5264,0.0996
5265,-0.0199
5266,-0.1594
5267,-0.1992
5268,-0.3188
5269,-0.2391
5270,-0.0598
5271,-0.2191
5272,-0.1793
5273,-0.1395
5274,-0.0398
5275,0.0598
5276,0.0797
5277,0.0398
5278,-0.0398
5279,0.0199
5280,0.1594
5281,0.2391
5282,0.1195
5283,0.1195
5284,0.1992
5285,0.0996
5286,-0.0398
5287,-0.1594
5288,-0.2789
5289,-0.3188
5290,-0.2391
5291,-0.1992
5292,-0.2391
5293,-0.1992
5294,-0.0996
5295,0.0996
5296,0.2191
5297,0.3188
5298,0.3785
5299,0.2988
5300,0.1793
5301,0.0398
5302,-0.0797
5303,-0.0996
5304,-0.0996
5305,-0.0398
5306,0.0398
5307,0.0996
5308,0.1594
5309,0.1395
5310,0.0000
5311,-0.1594
5312,-0.1793
5313,0.0199
5314,0.0199
5315,0.0199
5316,-0.0398
5317,0.0000
5318,0.0598
5319,0.0797
5320,0.0598
5321,-0.0199
5322,-0.0996
5323,-0.2590
5324,-0.5379
5325,-0.3387
5326,0.0598
5327,0.4184
5328,0.5777
5329,0.6773
5330,0.6176
5331,0.4781
5332,0.1594
5333,-0.1395
5334,-0.3586
5335,-0.3188
5336,0.0797
5337,0.0996
5338,-0.2391
5339,-0.4184
5340,-0.4781
5341,-0.2789
5342,-0.0398
5343,0.0996
5344,0.0199
5345,-0.0598
5346,0.0000
5347,0.0598
5348,0.1395
5349,0.1793
5350,0.0598
5351,-0.1395
5352,-0.1594
5353,-0.1793
5354,-0.1992
5355,-0.1195
5356,-0.1992
5357,-0.1594
5358,-0.1594
5359,-0.1195
5360,-0.0598
5361,-0.1793
5362,-0.2391
5363,-0.1395
5364,-0.0598
5365,-0.0996
5366,-0.1395
5367,-0.2191
5368,-0.2391
5369,-0.2789
5370,-0.3188
5371,-0.2590
5372,-0.2191
5373,-0.0797
5374,0.0398
5375,0.0598
5376,0.1195
5377,-0.1395
5378,-0.6973
5379,-0.7770
5380,-0.4383
5381,-0.0996
5382,0.3188
5383,0.5180
5384,0.5379
5385,0.5180
5386,0.4383
5387,0.3387
5388,0.3188
5389,0.1395
5390,0.0797
5391,-0.0996
5392,-0.1594
5393,-0.1992
5394,-0.1793
5395,-0.1793
5396,-0.0598
5397,-0.0797
5398,-0.0398
5399,-0.0398
5400,-0.1195
5401,0.0000
5402,-0.1594
5403,-0.6773
5404,-0.5777
5405,-0.3785
5406,0.0000
5407,0.1793
5408,0.4184
5409,0.5578
5410,0.5777
5411,0.6176
5412,0.6375
5413,0.5777
5414,0.3984
5415,0.3785
5416,0.2391
5417,0.0598
5418,-0.0199
5419,-0.1793
5420,-0.2191
5421,-0.1793
5422,-0.2590
5423,-0.2391
5424,-0.2391
5425,-0.1395
5426,-0.1195
5427,-0.0996
5428,-0.1395
5429,-0.1594
5430,-0.1793
5431,-0.0598
5432,-0.0398
5433,0.0996
5434,0.1395
5435,0.0996
5436,0.0598
5437,-0.2590
5438,-0.4980
5439,-0.5379
5440,-0.3387
5441,-0.1195
5442,-0.0398
5443,-0.0598
5444,-0.1594
5445,-0.0199
5446,0.1195
5447,0.3188
5448,0.3586
5449,0.2590
5450,0.1793
5451,0.0996
5452,0.0398
5453,0.0797
5454,0.1793
5455,0.0199
5456,-0.0996
5457,-0.0598
5458,-0.0398
5459,-0.0199
5460,0.0797
5461,0.0598
5462,0.0000
5463,0.0996
5464,-0.0398
5465,-0.1395
5466,-0.1992
5467,-0.2789
5468,-0.2988
5469,-0.2988
5470,-0.2789
5471,-0.3984
5472,-0.3785
5473,-0.2590
5474,0.0000
5475,0.0996
5476,0.2988
5477,0.3586
5478,0.5180
5479,0.4383
5480,0.3387
5481,0.3387
5482,0.2391
5483,0.2391
5484,0.2590
5485,0.2391
5486,0.1395
5487,-0.0398
5488,-0.0797
5489,-0.1793
5490,-0.2191
5491,-0.3984
5492,-0.4184
5493,-0.1395
5494,0.1395
5495,0.3785
5496,0.3984
5497,0.2789
5498,0.2789
5499,0.2191
5500,0.1594
5501,0.1195
5502,0.0598
5503,0.0000
5504,-0.0598
5505,-0.1395
5506,-0.2191
5507,-0.4184
5508,-0.5578
5509,-0.6773
5510,-0.7570
5511,-0.7371
5512,-0.4980
5513,-0.1793
5514,-0.0199
5515,0.0797
5516,0.2191
5517,0.2590
5518,0.1793
5519,0.0199
5520,-0.0398
5521,-0.0398
5522,-0.0996
5523,0.0000
5524,-0.0199
5525,-0.0797
5526,-0.1195
5527,-0.0797
5528,0.0000
5529,-0.0199
5530,-0.0598
5531,-0.1395
5532,-0.2988
5533,-0.2988
5534,-0.1992
5535,-0.0598
5536,0.1395
5537,0.2590
5538,0.1793
5539,0.1594
5540,0.1395
5541,0.1793
5542,0.0199
5543,0.0996
5544,-0.0996
5545,-0.1793
5546,-0.1793
5547,-0.1395
5548,-0.0199
5549,-0.0199
5550,0.0199
5551,0.0398
5552,0.0000
5553,0.0398
5554,0.0398
5555,0.0199
5556,-0.0398
5557,0.0996
5558,0.2391
5559,0.2191
5560,0.0398
5561,0.0000
5562,0.0000
5563,0.0598
5564,0.0000
5565,-0.0598
5566,-0.1195
5567,-0.1395
5568,-0.3188
5569,-0.4184
5570,-0.3586
5571,-0.3586
5572,-0.1395
5573,-0.0398
5574,0.0797
5575,0.0598
5576,-0.0398
5577,-0.1594
5578,-0.2391
5579,-0.3188
5580,-0.2789
5581,-0.3188
5582,-0.4582
5583,-0.5578
5584,-0.5777
5585,-0.4980
5586,-0.3984
5587,-0.1594
5588,-0.1395
5589,-0.1793
5590,-0.1395
5591,-0.1594
5592,-0.0797
5593,0.1594
5594,0.2789
5595,0.4582
5596,0.4184
5597,0.2988
5598,0.1992
5599,-0.1594
5600,-0.3785
5601,-0.2789
5602,-0.1793
5603,-0.0996
5604,-0.0398
5605,-0.0199
5606,-0.1793
5607,-0.3387
5608,-0.2590
5609,-0.1793
5610,-0.0797
5611,-0.0797
5612,0.0199
5613,0.0199
5614,0.0996
5615,0.2391
5616,0.2789
5617,0.1594
5618,0.1395
5619,0.0996
5620,-0.0598
5621,-0.0996
5622,-0.0398
5623,-0.1195
5624,-0.1195
5625,-0.0996
5626,0.0598
5627,0.1793
5628,0.3387
5629,0.2988
5630,0.2988
5631,0.1992
5632,0.1992
5633,0.0598
5634,0.0398
5635,0.0598
5636,0.0797
5637,0.0598
5638,0.0598
5639,0.0000
5640,-0.1594
5641,-0.4582
5642,-0.4383
5643,-0.2988
5644,-0.0598
5645,0.1793
5646,0.2789
5647,0.2988
5648,0.3586
5649,0.3785
5650,0.2391
5651,0.1195
5652,0.0598
5653,0.0797
5654,-0.0598
5655,-0.0598
5656,-0.1395
5657,-0.1594
5658,-0.2590
5659,-0.2789
5660,-0.2988
5661,-0.1594
5662,-0.1195
5663,-0.0598
5664,0.0000
5665,0.0398
5666,0.0996
5667,0.1594
5668,0.2191
5669,0.1395
5670,-0.2191
5671,-0.2391
5672,-0.0398
5673,0.2191
5674,0.5180
5675,0.5777
5676,0.4383
5677,0.2789
5678,0.2988
5679,0.2988
5680,0.3188
5681,0.4184
5682,0.3785
5683,0.3188
5684,0.2988
5685,0.2191
5686,0.2590
5687,0.2391
5688,0.2191
5689,0.1395
5690,0.1195
5691,0.1195
5692,0.0598
5693,0.0000
5694,-0.0797
5695,-0.1195
5696,-0.1594
5697,-0.0996
5698,-0.1594
5699,-0.1793
5700,-0.1992
5701,-0.2789
5702,-0.2988
5703,-0.2191
5704,-0.2789
5705,-0.2590
5706,-0.1793
5707,-0.0996
5708,-0.0797
5709,0.0996
5710,0.2988
5711,0.2391
5712,0.2988
5713,0.1992
5714,0.1195
5715,0.0797
5716,-0.1395
5717,-0.2988
5718,-0.2191
5719,-0.1594
5720,0.0398
5721,0.2191
5722,0.3387
5723,0.3188
5724,0.1992
5725,-0.0199
5726,-0.1195
5727,-0.2391
5728,-0.2391
5729,-0.1195
5730,-0.0199
5731,0.0797
5732,0.1195
5733,0.1195
5734,0.0398
5735,-0.0797
5736,-0.1195
5737,-0.1195
5738,-0.1793
5739,-0.1793
5740,-0.0996
5741,-0.1195
5742,-0.1195
5743,-0.0996
5744,-0.1793
5745,-0.1793
5746,-0.3586
5747,-0.5379
5748,-0.6176
5749,-0.4781
5750,-0.1594
5751,0.0996
5752,0.2391
5753,0.3984
5754,0.4184
5755,0.3387
5756,0.0996
5757,0.1594
5758,0.3785
5759,0.4582
5760,0.5180
5761,0.4781
5762,0.2590
5763,0.0000
5764,-0.2391
5765,-0.3586
5766,-0.2988
5767,-0.2391
5768,-0.1992
5769,-0.0797
5770,-0.0797
5771,-0.2789
5772,-0.4184
5773,-0.3188
5774,-0.1793
5775,-0.0199
5776,0.0398
5777,0.1395
5778,0.2391
5779,0.2391
5780,0.2988
5781,0.3586
5782,0.3387
5783,0.3586
5784,0.3188
5785,0.3586
5786,0.3984
5787,0.4184
5788,0.3984
5789,0.2590
5790,0.1395
5791,0.1195
5792,0.0199
5793,0.0598
5794,0.0199
5795,-0.0996
5796,-0.1195
5797,-0.1395
5798,-0.0996
5799,-0.1195
5800,-0.0797
5801,-0.0996
5802,-0.1195
5803,-0.2391
5804,-0.4383
5805,-0.3188
5806,-0.3387
5807,-0.2988
5808,-0.1395
5809,0.0199
5810,0.0598
5811,0.2191
5812,0.2191
5813,0.1195
5814,0.0797
5815,-0.1992
5816,-0.3785
5817,-0.3586
5818,-0.1594
5819,0.0996
5820,0.0797
5821,-0.1594
5822,-0.2191
5823,-0.1395
5824,0.0398
5825,0.1992
5826,0.2191
5827,0.3387
5828,0.3785
5829,0.3586
5830,0.0398
5831,-0.2191
5832,-0.4980
5833,-0.6773
5834,-0.7172
5835,-0.5379
5836,-0.3984
5837,-0.1395
5838,0.0598
5839,0.1594
5840,0.2391
5841,0.1395
5842,0.1195
5843,0.0598
5844,0.0797
5845,0.0598
5846,0.0598
5847,0.0598
5848,0.0398
5849,-0.0797
5850,-0.1195
5851,-0.1992
5852,-0.2191
5853,-0.3188
5854,-0.3387
5855,-0.2590
5856,-0.1793
5857,-0.1195
5858,-0.0199
5859,0.0598
5860,0.0000
5861,-0.1395
5862,-0.1195
5863,-0.0598
5864,-0.0199
5865,0.0398
5866,0.0398
5867,0.0996
5868,0.0598
5869,0.0000
5870,-0.1594
5871,-0.0797
5872,-0.0598
5873,-0.0797
5874,0.0199
5875,0.0199
5876,-0.0598
5877,-0.0797
5878,-0.1195
5879,-0.2191
5880,-0.2391
5881,-0.2191
5882,-0.2391
5883,-0.1793
5884,-0.0996
5885,-0.1195
5886,-0.1793
5887,-0.1395
5888,-0.1395
5889,-0.0199
5890,0.1594
5891,0.3188
5892,0.2391
5893,0.3188
5894,0.4980
5895,0.5777
5896,0.6176
5897,0.4383
5898,0.1395
5899,-0.1992
5900,-0.4582
5901,-0.4383
5902,-0.3586
5903,-0.3984
5904,-0.7969
5905,-0.7969
5906,-0.4184
5907,0.0996
5908,0.5578
5909,0.7371
5910,0.9762
5911,1.0957
5912,1.0559
5913,0.8566
5914,0.6574
5915,0.3586
5916,0.0996
5917,-0.1594
5918,-0.2789
5919,-0.3387
5920,-0.4383
5921,-0.3984
5922,-0.2789
5923,-0.2789
5924,-0.5180
5925,-0.4582
5926,-0.3188
5927,-0.0598
5928,0.2391
5929,0.3785
5930,0.4184
5931,0.4781
5932,0.4184
5933,0.4582
5934,0.3188
5935,0.2191
5936,0.0996
5937,-0.0199
5938,0.0000
5939,-0.0598
5940,-0.1195
5941,-0.0996
5942,-0.1395
5943,-0.1195
5944,-0.2191
5945,-0.2191
5946,-0.0199
5947,-0.0199
5948,0.0398
5949,0.0598
5950,0.0199
5951,-0.1395
5952,-0.2391
5953,-0.2789
5954,-0.3785
5955,-0.5379
5956,-0.6176
5957,-0.5379
5958,-0.3188
5959,-0.1395
5960,0.0199
5961,0.1793
5962,0.3387
5963,0.4184
5964,0.2988
5965,-0.0398
5966,-0.1992
5967,-0.2789
5968,-0.1594
5969,-0.0598
5970,0.0199
5971,-0.0199
5972,0.0398
5973,0.0996
5974,0.2391
5975,0.2590
5976,0.0398
5977,-0.2590
5978,-0.3586
5979,-0.2191
5980,0.0398
5981,0.1395
5982,0.2590
5983,0.0797
5984,-0.1195
5985,-0.2988
5986,-0.2191
5987,0.0398
5988,0.2789
5989,0.2789
5990,0.1793
5991,0.0398
5992,0.0000
5993,0.1992
5994,0.3785
5995,0.3785
5996,0.2191
5997,0.2789
5998,0.2988
5999,0.2988
6000,0.3387
6001,0.2988
6002,0.2789
6003,0.2789
6004,0.1793
6005,0.0598
6006,-0.0598
6007,-0.2988
6008,-0.3785
6009,-0.3586
6010,-0.2191
6011,-0.0797
6012,-0.0199
6013,0.1195
6014,0.1195
6015,0.0797
6016,0.0199
6017,-0.0598
6018,-0.1793
6019,-0.2391
6020,-0.2391
6021,-0.2590
6022,-0.3188
6023,-0.4582
6024,-0.5180
6025,-0.3188
6026,-0.0996
6027,0.0199
6028,0.0199
6029,-0.3188
6030,-0.3785
6031,-0.2191
6032,0.0598
6033,0.1992
6034,0.1793
6035,0.0996
6036,0.0000
6037,-0.0199
6038,0.0000
6039,0.1594
6040,0.2789
6041,0.2391
6042,0.1594
6043,0.0598
6044,-0.0598
6045,-0.2191
6046,-0.5180
6047,-0.4781
6048,-0.4184
6049,-0.5977
6050,-0.5977
6051,-0.3387
6052,0.0000
6053,0.3387
6054,0.4184
6055,0.4781
6056,0.4980
6057,0.4383
6058,0.0398
6059,-0.4184
6060,-0.4980
6061,-0.5180
6062,-0.2391
6063,0.0598
6064,0.2988
6065,0.4781
6066,0.4781
6067,0.3586
6068,0.2391
6069,0.1594
6070,0.1594
6071,0.1793
6072,0.2988
6073,0.2590
6074,0.2391
6075,0.1793
6076,0.1195
6077,0.0797
6078,-0.0797
6079,-0.1594
6080,-0.1992
6081,-0.1594
6082,-0.1594
6083,-0.2590
6084,-0.1793
6085,-0.0797
6086,0.0996
6087,0.1395
6088,0.0996
6089,-0.0398
6090,-0.2789
6091,-0.3785
6092,-0.4184
6093,-0.1793
6094,-0.0199
6095,0.1992
6096,0.2789
6097,0.1594
6098,0.1793
6099,0.2590
6100,0.3387
6101,0.3785
6102,0.3188
6103,0.2590
6104,0.1992
6105,0.2789
6106,0.1992
6107,0.0996
6108,-0.1594
6109,-0.4184
6110,-0.4383
6111,-0.3984
6112,-0.2590
6113,-0.0996
6114,-0.0199
6115,-0.1195
6116,-0.1395
6117,-0.0797
6118,0.0996
6119,0.1992
6120,0.2789
6121,0.3188
6122,0.1395
6123,0.0398
6124,-0.0797
6125,-0.2590
6126,-0.4184
6127,-0.5180
6128,-0.5777
6129,-0.3984
6130,-0.2191
6131,-0.0797
6132,0.0398
6133,0.1793
6134,0.1594
6135,0.1992
6136,0.1395
6137,0.0996
6138,0.0797
6139,0.1395
6140,0.1395
6141,0.1594
6142,-0.0398
6143,-0.0996
6144,-0.1992
6145,-0.2391
6146,-0.1195
6147,-0.1195
6148,-0.1195
6149,-0.2391
6150,-0.2789
6151,-0.2789
6152,-0.2391
6153,-0.0996
6154,-0.0996
6155,0.0000
6156,0.0199
6157,-0.1395
6158,-0.0996
6159,-0.0797
6160,-0.0598
6161,-0.0398
6162,-0.0199
6163,0.0797
6164,-0.0398
6165,-0.0199
6166,-0.0199
6167,-0.0996
6168,-0.1594
6169,-0.1195
6170,0.0000
6171,0.0398
6172,0.2191
6173,0.3387
6174,0.1992
6175,0.0996
6176,0.0398
6177,0.0398
6178,0.0398
6179,0.0598
6180,-0.0398
6181,-0.1793
6182,-0.1195
6183,0.1195
6184,0.2789
6185,0.4582
6186,0.5379
6187,0.4781
6188,0.4781
6189,0.2988
6190,0.2191
6191,0.0398
6192,-0.0996
6193,-0.1195
6194,-0.0199
6195,0.0398
6196,0.0000
6197,-0.0398
6198,-0.0199
6199,0.0996
6200,0.2391
6201,0.2988
6202,0.2590
6203,0.2391
6204,-0.0398
6205,-0.4980
6206,-0.6176
6207,-0.3785
6208,0.0199
6209,0.3984
6210,0.5977
6211,0.6773
6212,0.6176
6213,0.4383
6214,0.2590
6215,0.0199
6216,-0.0797
6217,0.0000
6218,0.2789
6219,0.4383
6220,0.5777
6221,0.5977
6222,0.5977
6223,0.4781
6224,0.4184
6225,0.3984
6226,0.2590
6227,0.1793
6228,0.0398
6229,0.0000
6230,-0.1395
6231,-0.3188
6232,-0.5379
6233,-0.4781
6234,-0.3188
6235,0.0398
6236,0.3586
6237,0.4781
6238,0.5379
6239,0.5578
6240,0.5977
6241,0.5977
6242,0.5977
6243,0.5578
6244,0.4582
6245,0.4383
6246,0.4184
6247,0.3586
6248,0.2590
6249,0.1992
6250,0.1395
6251,0.0797
6252,0.0199
6253,-0.0398
6254,-0.0797
6255,-0.1195
6256,-0.0996
6257,0.0000
6258,0.0000
6259,0.0000
6260,0.0000
6261,-0.1195
6262,-0.1793
6263,-0.1195
6264,0.0000
6265,-0.0398
6266,-0.0996
6267,-0.0598
6268,0.0398
6269,0.0199
6270,0.0000
6271,0.0199
6272,0.0199
6273,0.1195
6274,0.1195
6275,0.0797
6276,0.0797
6277,-0.1395
6278,-0.1395
6279,-0.1195
6280,-0.0199
6281,0.0199
6282,0.0000
6283,-0.0996
6284,-0.1793
6285,-0.3387
6286,-0.3188
6287,-0.1395
6288,0.0199
6289,0.1195
6290,0.1992
6291,0.1992
6292,0.1793
6293,0.1195
6294,-0.0598
6295,-0.1195
6296,-0.0398
6297,-0.1594
6298,-0.1594
6299,0.0199
6300,-0.0199
6301,-0.1793
6302,-0.5379
6303,-0.8168
6304,-0.8965
6305,-0.6375
6306,-0.2391
6307,0.0598
6308,0.2191
6309,0.2988
6310,0.3586
6311,0.1992
6312,0.0398
6313,-0.3188
6314,-0.4980
6315,-0.4383
6316,-0.3188
6317,-0.2391
6318,-0.1793
6319,-0.1594
6320,-0.3188
6321,-0.3785
6322,-0.2789
6323,-0.1793
6324,-0.0996
6325,-0.0199
6326,-0.0797
6327,-0.1195
6328,-0.1195
6329,-0.2590
6330,-0.3984
6331,-0.4582
6332,-0.4980
6333,-0.3586
6334,-0.3188
6335,-0.2191
6336,-0.0797
6337,-0.0996
6338,-0.1195
6339,-0.1992
6340,-0.3586
6341,-0.4781
6342,-0.5578
6343,-0.5180
6344,-0.4383
6345,-0.3785
6346,-0.2590
6347,-0.4980
6348,-0.7570
6349,-0.6973
6350,-0.4781
6351,-0.2191
6352,-0.1992
6353,-0.1793
6354,0.0199
6355,0.1594
6356,0.2988
6357,0.3188
6358,0.3188
6359,0.1594
6360,-0.1195
6361,-0.3984
6362,-0.4184
6363,-0.2988
6364,-0.1395
6365,0.1594
6366,0.2391
6367,0.2988
6368,0.2590
6369,0.2191
6370,0.0996
6371,-0.0199
6372,-0.2191
6373,-0.4184
6374,-0.5777
6375,-0.5180
6376,-0.3387
6377,-0.1594
6378,0.0199
6379,0.0797
6380,0.0000
6381,-0.0996
6382,-0.2789
6383,-0.3586
6384,-0.3586
6385,-0.2789
6386,-0.4184
6387,-0.7172
6388,-0.7570
6389,-0.8168
6390,-0.5777
6391,-0.1793
6392,0.1395
6393,0.4383
6394,0.4980
6395,0.5578
6396,0.4980
6397,0.3984
6398,0.3387
6399,0.2988
6400,0.3586
6401,0.2391
6402,0.0199
6403,-0.0398
6404,-0.1195
6405,-0.2789
6406,-0.4383
6407,-0.4582
6408,-0.3586
6409,-0.2789
6410,-0.3785
6411,-0.5578
6412,-0.5180
6413,-0.4184
6414,-0.2789
6415,-0.2789
6416,-0.2590
6417,-0.1395
6418,-0.0199
6419,0.1195
6420,0.2191
6421,0.0398
6422,0.0598
6423,0.1594
6424,0.3387
6425,0.4781
6426,0.5180
6427,0.5578
6428,0.4781
6429,0.3188
6430,0.1594
6431,-0.0598
6432,-0.1594
6433,-0.1992
6434,-0.2391
6435,-0.3387
6436,-0.4980
6437,-0.5180
6438,-0.4781
6439,-0.5379
6440,-0.4582
6441,-0.2590
6442,-0.0598
6443,-0.1793
6444,-0.1793
6445,-0.1195
6446,0.0000
6447,0.0199
6448,0.0199
6449,-0.2191
6450,-0.2191
6451,-0.0996
6452,0.0398
6453,0.1395
6454,0.1395
6455,0.1594
6456,0.1395
6457,0.0797
6458,0.0996
6459,0.0598
6460,0.0199
6461,0.1195
6462,0.0996
6463,0.1594
6464,0.0398
6465,-0.1992
6466,-0.2191
6467,-0.1594
6468,-0.1594
6469,-0.0996
6470,-0.0996
6471,-0.2191
6472,-0.2191
6473,-0.1395
6474,-0.1395
6475,-0.0797
6476,0.0797
6477,0.1793
6478,0.2391
6479,0.2988
6480,0.1992
6481,0.0398
6482,0.0797
6483,0.2590
6484,0.5180
6485,0.5777
6486,0.5777
6487,0.4184
6488,0.2789
6489,0.1992
6490,0.1195
6491,-0.0996
6492,-0.2988
6493,-0.2590
6494,-0.1395
6495,-0.0598
6496,-0.0598
6497,-0.1395
6498,-0.1594
6499,-0.2988
6500,-0.9762
6501,-1.4145
6502,-1.1355
6503,-0.6375
6504,-0.0398
6505,0.3586
6506,0.5180
6507,0.5578
6508,0.3984
6509,0.2191
6510,0.2590
6511,0.1793
6512,0.0996
6513,0.0000
6514,-0.0598
6515,-0.0996
6516,-0.1195
6517,-0.0996
6518,-0.0598
6519,0.0000
6520,0.0398
6521,0.1395
6522,0.0598
6523,0.1395
6524,0.0797
6525,0.0398
6526,0.0199
6527,-0.0996
6528,-0.3188
6529,-0.3785
6530,-0.3188
6531,-0.1992
6532,-0.1992
6533,-0.0996
6534,-0.0199
6535,0.0797
6536,0.1395
6537,0.1793
6538,0.1594
6539,0.0398
6540,0.0598
6541,-0.0797
6542,-0.0797
6543,-0.1594
6544,-0.0398
6545,0.0797
6546,0.2191
6547,0.4184
6548,0.3984
6549,0.2988
6550,0.2988
6551,0.3188
6552,0.2590
6553,0.2590
6554,0.1793
6555,0.1992
6556,0.1195
6557,0.0598
6558,-0.3387
6559,-0.4980
6560,-0.3984
6561,-0.2391
6562,-0.0598
6563,0.1195
6564,0.1793
6565,0.0199
6566,-0.4980
6567,-0.5578
6568,-0.4184
6569,0.0000
6570,0.2391
6571,0.4383
6572,0.5977
6573,0.6773
6574,0.5379
6575,0.3785
6576,-0.0199
6577,-0.4980
6578,-0.5379
6579,-0.4980
6580,-0.3387
6581,-0.2988
6582,-0.3984
6583,-0.5180
6584,-0.7371
6585,-0.7969
6586,-0.6375
6587,-0.4781
6588,-0.2590
6589,-0.0398
6590,0.0398
6591,0.1594
6592,0.1992
6593,0.2391
6594,0.1992
6595,0.1195
6596,0.0598
6597,-0.0398
6598,-0.1395
6599,-0.0797
6600,0.0797
6601,0.2391
6602,0.3984
6603,0.4980
6604,0.5180
6605,0.4184
6606,0.0797
6607,0.0199
6608,0.1195
6609,0.0797
6610,-0.0598
6611,-0.0797
6612,-0.0797
6613,-0.0199
6614,-0.0398
6615,-0.4383
6616,-0.6574
6617,-0.5777
6618,-0.2191
6619,0.0000
6620,0.0996
6621,0.2391
6622,0.2590
6623,0.2391
6624,0.2590
6625,0.2191
6626,0.1395
6627,0.0199
6628,-0.0199
6629,-0.1195
6630,-0.0996
6631,-0.1195
6632,-0.1992
6633,-0.2391
6634,-0.3188
6635,-0.1395
6636,0.0199
6637,0.1793
6638,0.2988
6639,0.3387
6640,0.2789
6641,0.1395
6642,-0.0398
6643,-0.2789
6644,-0.2590
6645,-0.0797
6646,0.1793
6647,0.3984
6648,0.5578
6649,0.4781
6650,0.5379
6651,0.4184
6652,0.3586
6653,0.2590
6654,0.2789
6655,0.2789
6656,0.1992
6657,0.1793
6658,0.1793
6659,0.0199
6660,-0.2590
6661,-0.4582
6662,-0.3785
6663,-0.1594
6664,0.0000
6665,0.2391
6666,0.2391
6667,0.2391
6668,0.1195
6669,0.0797
6670,0.0797
6671,0.0199
6672,0.0000
6673,-0.1395
6674,-0.0797
6675,0.0996
6676,0.2590
6677,0.2590
6678,0.3586
6679,0.3387
6680,0.2988
6681,0.1992
6682,0.0000
6683,-0.1395
6684,-0.1992
6685,-0.1195
6686,0.0000
6687,0.0996
6688,0.1793
6689,0.1594
6690,0.1992
6691,0.2789
6692,0.2789
6693,0.2191
6694,0.0996
6695,-0.0398
6696,-0.1195
6697,-0.2789
6698,-0.3586
6699,-0.2391
6700,-0.2191
6701,-0.2191
6702,-0.3984
6703,-0.4980
6704,-0.4582
6705,-0.2988
6706,-0.2988
6707,-0.2590
6708,-0.3387
6709,-0.2391
6710,-0.1793
6711,0.0398
6712,0.1992
6713,0.2789
6714,0.2988
6715,0.2988
6716,0.2988
6717,0.1992
6718,0.1395
6719,0.0598
6720,0.0000
6721,0.0000
6722,0.0598
6723,0.1195
6724,0.0797
6725,-0.0598
6726,-0.1594
6727,-0.0797
6728,-0.0996
6729,-0.0598
6730,-0.1395
6731,-0.2191
6732,-0.2391
6733,-0.2191
6734,-0.2590
6735,-0.2988
6736,-0.1793
6737,-0.0797
6738,0.0398
6739,0.1395
6740,0.0598
6741,0.0199
6742,-0.0598
6743,-0.0199
6744,0.0398
6745,0.1395
6746,0.1992
6747,0.1395
6748,0.0996
6749,0.0398
6750,0.1594
6751,0.2191
6752,0.1992
6753,0.1793
6754,0.0996
6755,0.0797
6756,0.0996
6757,0.0996
6758,0.1195
6759,0.1195
6760,0.1395
6761,0.1594
6762,0.1195
6763,0.1195
6764,0.0996
6765,0.0398
6766,-0.0199
6767,-0.0398
6768,0.0398
6769,0.0199
6770,0.1992
6771,0.0598
6772,-0.0398
6773,-0.1594
6774,-0.1594
6775,-0.0996
6776,-0.2191
6777,-0.2988
6778,-0.4582
6779,-0.7770
6780,-0.6375
6781,-0.4184
6782,-0.0996
6783,0.2191
6784,0.3586
6785,0.4184
6786,0.4383
6787,0.3984
6788,0.4184
6789,0.3188
6790,0.2391
6791,0.2590
6792,0.1992
6793,0.0996
6794,0.0797
6795,0.0996
6796,0.0199
6797,0.0000
6798,-0.0797
6799,-0.0199
6800,-0.0996
6801,-0.2191
6802,-0.2191
6803,-0.1793
6804,-0.1793
6805,-0.2789
6806,-0.2391
6807,-0.2191
6808,-0.1395
6809,-0.1195
6810,-0.1395
6811,-0.2590
6812,-0.1992
6813,-0.0598
6814,0.0598
6815,0.1793
6816,0.1793
6817,0.0598
6818,0.0000
6819,-0.0199
6820,-0.0199
6821,-0.0996
6822,-0.0598
6823,0.0398
6824,0.1793
6825,0.1992
6826,0.0996
6827,-0.1195
6828,-0.3785
6829,-0.6574
6830,-0.6574
6831,-0.4383
6832,0.0000
6833,0.4582
6834,0.6574
6835,0.6973
6836,0.7172
6837,0.7570
6838,0.7570
6839,0.6176
6840,0.4781
6841,0.2988
6842,0.1594
6843,0.0598
6844,-0.0398
6845,-0.0398
6846,-0.0797
6847,-0.1395
6848,-0.2391
6849,-0.3387
6850,-0.4383
6851,-0.4383
6852,-0.2789
6853,-0.0199
6854,0.0797
6855,0.1793
6856,0.3387
6857,0.3984
6858,0.4184
6859,0.4383
6860,0.4582
6861,0.3984
6862,0.2590
6863,0.2191
6864,0.1395
6865,0.0199
6866,-0.0199
6867,-0.0996
6868,-0.1195
6869,-0.1594
6870,-0.2191
6871,-0.1992
6872,-0.2789
6873,-0.2789
6874,-0.3984
6875,-0.3586
6876,-0.3387
6877,-0.3387
6878,-0.2391
6879,-0.0797
6880,0.0398
6881,0.0199
6882,0.0996
6883,0.1594
6884,0.1395
6885,0.1793
6886,0.1992
6887,0.0996
6888,-0.3188
6889,-0.7172
6890,-0.6773
6891,-0.5180
6892,-0.1793
6893,0.0199
6894,0.1594
6895,0.1395
6896,0.1395
6897,-0.0398
6898,-0.0797
6899,-0.0598
6900,0.1793
6901,0.3785
6902,0.3785
6903,0.2789
6904,0.1594
6905,0.0000
6906,-0.1395
6907,-0.4582
6908,-0.7570
6909,-0.7371
6910,-0.5977
6911,-0.4184
6912,-0.1992
6913,-0.0797
6914,-0.0797
6915,-0.0398
6916,0.0199
6917,0.0398
6918,0.1992
6919,0.2988
6920,0.3387
6921,0.3984
6922,0.2789
6923,0.1793
6924,0.1395
6925,0.0598
6926,0.0598
6927,0.0996
6928,0.0797
6929,-0.0598
6930,-0.2391
6931,-0.2789
6932,-0.1594
6933,-0.1195
6934,-0.0797
6935,0.0797
6936,0.2191
6937,0.2590
6938,0.2590
6939,0.0996
6940,-0.0199
6941,-0.0199
6942,0.0199
6943,0.0598
6944,0.0996
6945,0.1793
6946,0.3387
6947,0.2988
6948,0.2789
6949,0.2191
6950,0.2191
6951,0.0797
6952,-0.0199
6953,-0.2391
6954,-0.3984
6955,-0.5180
6956,-0.3785
6957,-0.3188
6958,-0.3188
6959,-0.7969
6960,-0.9164
6961,-0.7371
6962,-0.4582
6963,-0.2988
6964,-0.0797
6965,0.1594
6966,0.2391
6967,0.3387
6968,0.4383
6969,0.3188
6970,0.2789
6971,-0.1195
6972,-0.3586
6973,-0.1992
6974,0.0199
6975,0.2789
6976,0.4980
6977,0.5180
6978,0.3387
6979,0.1793
6980,0.2191
6981,0.3586
6982,0.4184
6983,0.3387
6984,0.3387
6985,0.2590
6986,0.1195
6987,0.0598
6988,0.0598
6989,-0.0996
6990,-0.1594
6991,-0.1793
6992,-0.2191
6993,-0.3586
6994,-0.3984
6995,-0.2391
6996,-0.0398
6997,0.1395
6998,0.1992
6999,0.1793
7000,0.2590
7001,0.2191
7002,0.1992
7003,0.1594
7004,-0.0598
7005,-0.2191
7006,-0.1793
7007,-0.1793
7008,-0.1594
7009,-0.0797
7010,-0.0199
7011,-0.0398
7012,0.0398
7013,0.0797
7014,0.1195
7015,0.1793
7016,0.1992
7017,0.0398
7018,0.0199
7019,0.0598
7020,0.1195
7021,0.0996
7022,0.0598
7023,0.0398
7024,0.0996
7025,0.1195
7026,0.0996
7027,-0.0598
7028,-0.1395
7029,-0.3586
7030,-0.4781
7031,-0.5379
7032,-0.5180
7033,-0.4781
7034,-0.3785
7035,-0.2789
7036,-0.2988
7037,-0.0996
7038,0.0797
7039,0.0598
7040,0.0797
7041,0.2191
7042,0.1992
7043,0.2191
7044,0.2789
7045,0.2590
7046,0.1992
7047,0.0996
7048,0.0199
7049,0.0398
7050,-0.0996
7051,-0.1195
7052,-0.0199
7053,0.0000
7054,-0.0199
7055,0.0000
7056,0.0398
7057,0.0000
7058,-0.1594
7059,-0.2191
7060,-0.1395
7061,0.0398
7062,0.1395
7063,0.2988
7064,0.2191
7065,0.1793
7066,0.2988
7067,0.3586
7068,0.4184
7069,0.4582
7070,0.4980
7071,0.3188
7072,0.0996
7073,-0.0598
7074,-0.1793
7075,-0.7570
7076,-1.1355
7077,-0.8965
7078,-0.3984
7079,0.1195
7080,0.5777
7081,0.7172
7082,0.7570
7083,0.6375
7084,0.5379
7085,0.4184
7086,0.3586
7087,0.3586
7088,0.3984
7089,0.2789
7090,0.2590
7091,0.0598
7092,0.0598
7093,0.0598
7094,0.0000
7095,-0.0797
7096,-0.1195
7097,-0.1793
7098,-0.1992
7099,-0.1594
7100,-0.1195
7101,-0.0398
7102,-0.0398
7103,-0.0996
7104,-0.1195
7105,-0.1594
7106,-0.0996
7107,-0.0996
7108,-0.1395
7109,-0.1395
7110,-0.2391
7111,-0.2988
7112,-0.5180
7113,-0.5578
7114,-0.3586
7115,-0.0996
7116,0.0797
7117,0.2191
7118,0.0797
7119,0.0000
7120,0.0199
7121,0.1793
7122,0.2988
7123,0.2988
7124,0.2191
7125,0.2391
7126,0.2391
7127,0.1195
7128,0.0199
7129,-0.0996
7130,-0.1195
7131,-0.0996
7132,-0.1395
7133,-0.1195
7134,-0.1594
7135,0.0199
7136,-0.0398
7137,-0.0797
7138,-0.1395
7139,-0.1195
7140,-0.1793
7141,-0.4184
7142,-0.4980
7143,-0.2590
7144,0.0199
7145,0.3188
7146,0.4184
7147,0.4980
7148,0.5379
7149,0.4582
7150,0.4184
7151,0.3188
7152,0.1992
7153,0.0598
7154,-0.0199
7155,-0.0797
7156,-0.0598
7157,-0.1395
7158,-0.1594
7159,-0.0797
7160,-0.1195
7161,-0.1195
7162,-0.0797
7163,-0.0199
7164,-0.0398
7165,0.0000
7166,-0.0598
7167,-0.2191
7168,-0.1395
7169,-0.1793
7170,-0.1793
7171,-0.2988
7172,-0.4184
7173,-0.4781
7174,-0.5379
7175,-0.4781
7176,-0.2590
7177,-0.3387
7178,-0.4383
7179,-0.3586
7180,-0.2590
7181,0.1594
7182,0.6176
7183,0.8367
7184,0.8766
7185,0.7770
7186,0.6773
7187,0.5578
7188,0.4980
7189,0.2191
7190,-0.0598
7191,-0.3586
7192,-0.6773
7193,-0.8965
7194,-0.8367
7195,-0.5180
7196,-0.2391
7197,0.0000
7198,0.2191
7199,0.2789
7200,0.2789
7201,0.1992
7202,0.1992
7203,0.0996
7204,0.0996
7205,-0.0398
7206,-0.0797
7207,-0.2391
7208,-0.3586
7209,-0.3984
7210,-0.4582
7211,-0.4383
7212,-0.2789
7213,0.0000
7214,0.2391
7215,0.3188
7216,0.3387
7217,-0.0199
7218,-0.3984
7219,-0.6973
7220,-0.6176
7221,-0.4582
7222,-0.1195
7223,0.1594
7224,0.2988
7225,0.4184
7226,0.5180
7227,0.5578
7228,0.4184
7229,0.0996
7230,0.0000
7231,-0.1395
7232,-0.1793
7233,-0.0996
7234,0.0797
7235,0.2789
7236,0.3387
7237,0.2590
7238,0.0996
7239,-0.1195
7240,-0.1992
7241,-0.2590
7242,-0.2988
7243,-0.2191
7244,-0.1992
7245,-0.1195
7246,-0.0797
7247,-0.1395
7248,-0.1594
7249,-0.3188
7250,-0.6574
7251,-0.7770
7252,-0.6375
7253,-0.3984
7254,-0.1594
7255,0.0797
7256,0.2391
7257,0.2391
7258,0.2391
7259,0.2191
7260,0.2191
7261,0.1793
7262,0.0398
7263,-0.0598
7264,-0.1594
7265,-0.0199
7266,0.0797
7267,0.0598
7268,0.0598
7269,0.0199
7270,-0.0598
7271,-0.4980
7272,-0.7969
7273,-0.7371
7274,-0.4582
7275,-0.1395
7276,0.1594
7277,0.4184
7278,0.6176
7279,0.6176
7280,0.6973
7281,0.7371
7282,0.7371
7283,0.5379
7284,0.3188
7285,0.2789
7286,-0.0797
7287,-0.5977
7288,-0.6176
7289,-0.3785
7290,-0.2391
7291,-0.1395
7292,0.1594
7293,0.3586
7294,0.4582
7295,0.4383
7296,0.3785
7297,0.2391
7298,0.1395
7299,0.0598
7300,-0.1793
7301,-0.4582
7302,-0.3785
7303,-0.1992
7304,-0.1594
7305,-0.0996
7306,-0.1992
7307,-0.3188
7308,-0.4781
7309,-0.4582
7310,-0.3387
7311,-0.1793
7312,-0.2191
7313,-0.2590
7314,-0.0797
7315,-0.0996
7316,0.0000
7317,0.0398
7318,0.1793
7319,0.2191
7320,0.4184
7321,0.3785
7322,0.3586
7323,0.2191
7324,0.0797
7325,-0.1195
7326,-0.3586
7327,-0.4184
7328,-0.3188
7329,-0.2191
7330,-0.0598
7331,-0.0199
7332,-0.0398
7333,-0.0398
7334,-0.0398
7335,-0.2988
7336,-0.5379
7337,-0.3387
7338,-0.0598
7339,0.2391
7340,0.3387
7341,0.3785
7342,0.2391
7343,-0.1195
7344,-0.4383
7345,-0.4184
7346,-0.2590
7347,-0.0598
7348,0.0996
7349,0.2391
7350,0.2391
7351,-0.0199
7352,-0.1992
7353,-0.1992
7354,-0.0398
7355,0.1395
7356,0.0199
7357,0.0000
7358,-0.1395
7359,-0.5379
7360,-0.6773
7361,-0.5578
7362,-0.3586
7363,-0.0996
7364,0.1395
7365,0.3785
7366,0.6773
7367,0.9363
7368,0.9762
7369,0.7969
7370,0.5379
7371,0.3785
7372,0.4582
7373,0.4184
7374,0.2191
7375,-0.0996
7376,-0.4184
7377,-0.5180
7378,-0.4184
7379,-0.1992
7380,0.0996
7381,0.2590
7382,0.2590
7383,0.2789
7384,0.2391
7385,0.2391
7386,0.1793
7387,0.0797
7388,0.0598
7389,0.0000
7390,-0.0598
7391,-0.1195
7392,-0.1395
7393,-0.0996
7394,-0.0598
7395,-0.0398
7396,0.0398
7397,0.0797
7398,0.0797
7399,-0.0398
7400,-0.0598
7401,-0.0199
7402,-0.0996
7403,-0.0996
7404,-0.0996
7405,0.0000
7406,0.0398
7407,0.0199
7408,0.0199
7409,-0.1395
7410,-0.2191
7411,-0.3387
7412,-0.4383
7413,-0.3586
7414,-0.2789
7415,-0.2191
7416,-0.1195
7417,-0.1395
7418,-0.0398
7419,0.0199
7420,0.2191
7421,0.1195
7422,-0.0598
7423,-0.0996
7424,0.0000
7425,0.0797
7426,0.1395
7427,0.1594
7428,0.0398
7429,-0.0797
7430,-0.3984
7431,-0.5379
7432,-0.4383
7433,-0.2988
7434,-0.1793
7435,-0.4980
7436,-0.7172
7437,-0.6574
7438,-0.3785
7439,-0.2391
7440,-0.0797
7441,0.0398
7442,0.2789
7443,0.4383
7444,0.5379
7445,0.5777
7446,0.6375
7447,0.5977
7448,0.5379
7449,0.2391
7450,0.1992
7451,0.0996
7452,0.0996
7453,0.0398
7454,0.0000
7455,0.0398
7456,-0.0199
7457,-0.0398
7458,-0.0996
7459,-0.1395
7460,-0.0598
7461,0.0996
7462,0.1195
7463,-0.0398
7464,-0.2391
7465,-0.3188
7466,-0.3387
7467,-0.3387
7468,-0.2391
7469,-0.1992
7470,-0.1793
7471,-0.3387
7472,-0.4184
7473,-0.2590
7474,-0.1594
7475,0.1594
7476,0.4184
7477,0.5777
7478,0.6773
7479,0.6574
7480,0.5777
7481,0.4383
7482,0.1992
7483,-0.0598
7484,-0.1793
7485,-0.1793
7486,-0.0996
7487,-0.0398
7488,0.0598
7489,0.0598
7490,-0.0598
7491,-0.3785
7492,-0.3387
7493,-0.1395
7494,-0.0398
7495,0.0598
7496,0.0598
7497,0.0797
7498,0.1594
7499,0.1594
7500,0.1793
7501,0.1594
7502,0.1793
7503,0.0598
7504,-0.0996
7505,-0.1395
7506,-0.2191
7507,-0.2391
7508,-0.1395
7509,-0.1395
7510,-0.1195
7511,-0.1395
7512,-0.0598
7513,0.0000
7514,0.0199
7515,0.1594
7516,0.0996
7517,-0.2191
7518,-0.3188
7519,-0.2988
7520,-0.0199
7521,0.1793
7522,0.2391
7523,0.1992
7524,0.1195
7525,0.0797
7526,0.0398
7527,-0.4184
7528,-0.6973
7529,-0.5379
7530,-0.3984
7531,-0.0199
7532,0.1395
7533,0.1793
7534,0.2391
7535,0.2191
7536,0.1793
7537,0.0000
7538,-0.1793
7539,-0.4383
7540,-0.5578
7541,-0.4184
7542,-0.1793
7543,0.0199
7544,0.1594
7545,0.2988
7546,0.3188
7547,0.2590
7548,0.1992
7549,0.1992
7550,0.1594
7551,0.0797
7552,0.1195
7553,0.1992
7554,0.0797
7555,-0.0398
7556,-0.1395
7557,-0.1395
7558,-0.1992
7559,-0.2191
7560,-0.1793
7561,-0.1594
7562,-0.1594
7563,0.0199
7564,0.0598
7565,0.1395
7566,0.1395
7567,-0.0199
7568,-0.0398
7569,-0.0598
7570,0.0000
7571,-0.1594
7572,-0.2590
7573,-0.2191
7574,-0.2590
7575,-0.5777
7576,-0.8566
7577,-0.6375
7578,-0.2191
7579,0.1793
7580,0.5379
7581,0.7172
7582,0.7770
7583,0.7371
7584,0.5777
7585,0.2789
7586,-0.1594
7587,-0.3586
7588,-0.3984
7589,-0.3387
7590,-0.2191
7591,-0.1195
7592,-0.0398
7593,0.0398
7594,-0.3387
7595,-0.7172
7596,-0.7172
7597,-0.5379
7598,-0.1395
7599,0.1395
7600,0.3984
7601,0.5977
7602,0.6176
7603,0.6973
7604,0.5777
7605,0.4582
7606,0.3984
7607,0.3387
7608,0.1195
7609,-0.0996
7610,-0.1195
7611,0.0000
7612,0.0000
7613,0.0398
7614,-0.0996
7615,-0.1594
7616,-0.0598
7617,-0.0598
7618,-0.0199
7619,-0.0797
7620,-0.0398
7621,0.0398
7622,0.0598
7623,0.0199
7624,0.0000
7625,-0.0199
7626,-0.0398
7627,0.0199
7628,-0.0398
7629,-0.0598
7630,-0.1594
7631,-0.1395
7632,-0.1395
7633,-0.1992
7634,-0.2391
7635,-0.2391
7636,-0.1195
7637,-0.1195
7638,-0.0598
7639,0.0797
7640,0.0598
7641,-0.0598
7642,-0.4980
7643,-0.7969
7644,-0.8367
7645,-0.5977
7646,-0.2590
7647,0.0398
7648,0.3387
7649,0.3188
7650,0.2988
7651,0.3785
7652,0.3785
7653,0.5578
7654,0.6773
7655,0.7172
7656,0.6773
7657,0.4383
7658,0.0199
7659,-0.4184
7660,-0.5578
7661,-0.5379
7662,-0.2988
7663,-0.0598
7664,0.1195
7665,0.1594
7666,0.0398
7667,-0.2789
7668,-0.2191
7669,-0.2191
7670,-0.2391
7671,-0.2988
7672,-0.0398
7673,0.2789
7674,0.4184
7675,0.3188
7676,0.1195
7677,0.1395
7678,0.2391
7679,0.4184
7680,0.5180
7681,0.5578
7682,0.5578
7683,0.5379
7684,0.1992
7685,-0.3785
7686,-0.8168
7687,-0.7570
7688,-0.5977
7689,-0.2590
7690,0.0996
7691,0.3785
7692,0.5578
7693,0.3586
7694,-0.0199
7695,-0.0598
7696,0.0000
7697,0.1395
7698,0.3188
7699,0.4184
7700,0.4980
7701,0.5977
7702,0.4980
7703,0.2391
7704,-0.1395
7705,-0.3586
7706,-0.3387
7707,-0.3785
7708,-0.5379
7709,-0.5777
7710,-0.5977
7711,-0.5180
7712,-0.3785
7713,-0.4582
7714,-0.2191
7715,0.1395
7716,0.3785
7717,0.5977
7718,0.5777
7719,0.5379
7720,0.3586
7721,0.3188
7722,0.3984
7723,0.3188
7724,0.1395
7725,-0.1195
7726,-0.5777
7727,-0.9164
7728,-0.7969
7729,-0.3984
7730,0.0199
7731,0.2590
7732,0.3984
7733,0.4781
7734,0.4383
7735,0.3387
7736,0.2590
7737,0.1793
7738,-0.0199
7739,-0.5379
7740,-0.7969
7741,-0.7371
7742,-0.5777
7743,-0.3387
7744,-0.1395
7745,0.0398
7746,0.1992
7747,0.1992
7748,0.1793
7749,-0.1395
7750,-0.6773
7751,-0.9563
7752,-0.6773
7753,-0.3785
7754,-0.1195
7755,0.0996
7756,0.2789
7757,0.4781
7758,0.5977
7759,0.5379
7760,0.2988
7761,0.2391
7762,0.0398
7763,-0.0598
7764,-0.2191
7765,-0.6176
7766,-1.0559
7767,-1.3348
7768,-1.1953
7769,-0.6973
7770,-0.1594
7771,0.2391
7772,0.4781
7773,0.5977
7774,0.6176
7775,0.6973
7776,0.6176
7777,0.2988
7778,-0.0398
7779,0.0000
7780,0.1793
7781,0.3586
7782,0.3586
7783,0.3188
7784,0.0598
7785,-0.1594
7786,-0.3785
7787,-0.4383
7788,-0.3785
7789,-0.2391
7790,-0.0199
7791,0.0598
7792,0.0598
7793,-0.0199
7794,-0.1195
7795,-0.2590
7796,-0.4781
7797,-0.4383
7798,-0.2191
7799,0.0996
7800,0.0398
7801,0.0000
7802,0.0199
7803,-0.1395
7804,-0.0797
7805,0.1992
7806,0.4383
7807,0.4383
7808,0.3387
7809,0.1992
7810,0.2590
7811,0.2988
7812,0.3785
7813,0.2590
7814,0.0199
7815,-0.0797
7816,-0.2590
7817,-0.6176
7818,-0.7770
7819,-0.8168
7820,-0.8367
7821,-0.5777
7822,-0.2391
7823,0.2391
7824,0.5977
7825,0.8367
7826,0.8766
7827,0.8566
7828,0.6375
7829,0.2191
7830,0.2391
7831,0.3188
7832,0.2191
7833,0.2191
7834,0.0398
7835,0.0398
7836,0.0000
7837,-0.1793
7838,-0.3387
7839,-0.5578
7840,-0.6773
7841,-0.5379
7842,-0.4184
7843,-0.1195
7844,0.1793
7845,0.4184
7846,0.4980
7847,0.5777
7848,0.6176
7849,0.5180
7850,0.1594
7851,-0.0797
7852,-0.0797
7853,0.1395
7854,0.2590
7855,0.4383
7856,0.3984
7857,0.3586
7858,0.2191
7859,0.1395
7860,-0.0598
7861,-0.2590
7862,-0.3785
7863,-0.3586
7864,-0.4980
7865,-0.4980
7866,-0.3984
7867,-0.3387
7868,-0.2789
7869,-0.4184
7870,-0.2988
7871,-0.0996
7872,0.0797
7873,0.1793
7874,0.1195
7875,0.1395
7876,0.0199
7877,-0.1195
7878,-0.1793
7879,-0.2191
7880,-0.2988
7881,-0.2988
7882,-0.3188
7883,-0.3387
7884,-0.5977
7885,-0.9961
7886,-1.2750
7887,-0.9164
7888,-0.4781
7889,-0.0996
7890,0.1992
7891,0.2789
7892,0.4582
7893,0.7172
7894,0.6375
7895,0.3984
7896,0.1594
7897,0.1594
7898,0.1195
7899,0.1594
7900,0.2789
7901,0.0996
7902,-0.3984
7903,-0.3984
7904,-0.1395
7905,0.0797
7906,0.2391
7907,0.3785
7908,0.5578
7909,0.5578
7910,0.6176
7911,0.4980
7912,0.3785
7913,-0.2789
7914,-1.0559
7915,-1.1754
7916,-0.9164
7917,-0.3785
7918,0.2391
7919,0.5977
7920,0.8566
7921,0.9363
7922,0.9363
7923,0.8965
7924,0.7172
7925,0.6176
7926,0.5977
7927,0.4383
7928,0.1395
7929,-0.0996
7930,-0.1195
7931,-0.0797
7932,-0.2789
7933,-0.2391
7934,-0.3387
7935,-0.3387
7936,-0.2988
7937,-0.2391
7938,-0.1594
7939,-0.1793
7940,-0.1793
7941,-0.0996
7942,-0.0598
7943,-0.0398
7944,-0.0797
7945,-0.0797
7946,-0.1594
7947,-0.2590
7948,-0.2191
7949,-0.2191
7950,-0.2789
7951,-0.3586
7952,-0.4582
7953,-0.4184
7954,-0.3586
7955,-0.4980
7956,-0.6574
7957,-0.8965
7958,-0.9164
7959,-0.7371
7960,-0.3188
7961,0.0199
7962,0.1594
7963,0.2391
7964,0.3984
7965,0.4184
7966,0.1793
7967,0.0199
7968,-0.0598
7969,0.0598
7970,0.2590
7971,0.2391
7972,0.3188
7973,0.2391
7974,0.1395
7975,0.0598
7976,0.0000
7977,-0.1195
7978,-0.4582
7979,-0.6574
7980,-0.8367
7981,-0.6973
7982,-0.4184
7983,-0.1594
7984,0.1594
7985,0.4383
7986,0.5180
7987,0.4582
7988,0.1395
7989,-0.0598
7990,0.0797
7991,0.2988
7992,0.4383
7993,0.2191
7994,0.0598
7995,0.2191
7996,0.3586
7997,0.4980
7998,0.5180
7999,0.4184
8000,0.4781
8001,0.4582
8002,0.3586
8003,0.1793
8004,-0.0598
8005,-0.0797
8006,-0.0797
8007,-0.0598
8008,0.0000
8009,-0.0398
8010,-0.0996
8011,-0.0797
8012,-0.0996
8013,-0.0598
8014,-0.0797
8015,-0.1395
8016,-0.3387
8017,-0.3785
8018,-0.4781
8019,-0.4980
8020,-0.2789
8021,-0.0996
8022,0.1195
8023,0.2391
8024,0.2191
8025,0.1594
8026,0.0199
8027,-0.2391
8028,-0.5777
8029,-0.8566
8030,-0.9164
8031,-0.7371
8032,-0.4781
8033,-0.1195
8034,0.1594
8035,0.1992
8036,0.1594
8037,0.1793
8038,0.2789
8039,0.3188
8040,0.2590
8041,0.0797
8042,0.0996
8043,0.0398
8044,-0.0398
8045,-0.1395
8046,-0.2191
8047,-0.3586
8048,-0.5180
8049,-0.4781
8050,-0.3387
8051,-0.0996
8052,0.0000
8053,-0.0598
8054,-0.2988
8055,-0.4781
8056,-0.3785
8057,-0.2391
8058,-0.0996
8059,0.0398
8060,0.0996
8061,0.0996
8062,0.1395
8063,0.1793
8064,0.0996
8065,0.0996
8066,0.0996
8067,0.2789
8068,0.2789
8069,0.2988
8070,0.2191
8071,-0.0199
8072,-0.0797
8073,0.0000
8074,0.0000
8075,0.0398
8076,0.1195
8077,0.1992
8078,0.3188
8079,0.2789
8080,0.3188
8081,0.2590
8082,0.2191
8083,0.1195
8084,0.0398
8085,0.0000
8086,0.0598
8087,0.0598
8088,0.1395
8089,0.0000
8090,-0.1594
8091,-0.4184
8092,-0.8367
8093,-0.7371
8094,-0.3984
8095,0.0199
8096,0.2789
8097,0.3785
8098,0.4980
8099,0.4980
8100,0.5180
8101,0.3387
8102,0.1594
8103,0.1793
8104,0.2590
8105,0.0996
8106,0.0797
8107,-0.1395
8108,-0.1992
8109,-0.2789
8110,-0.0598
8111,0.1992
8112,0.3387
8113,0.2789
8114,0.0797
8115,-0.0797
8116,-0.2191
8117,-0.3586
8118,-0.3586
8119,-0.2391
8120,-0.0797
8121,-0.0598
8122,-0.2590
8123,-0.3785
8124,-0.3984
8125,-0.2789
8126,-0.0996
8127,0.1594
8128,0.2191
8129,0.1793
8130,0.3188
8131,0.2988
8132,0.2391
8133,0.1395
8134,0.1195
8135,0.0000
8136,0.0598
8137,0.0398
8138,0.1793
8139,0.1594
8140,0.0996
8141,0.1395
8142,0.2391
8143,0.2191
8144,0.1395
8145,0.1395
8146,0.0199
8147,-0.0398
8148,0.0598
8149,0.1395
8150,0.2590
8151,0.1594
8152,-0.1793
8153,-0.6375
8154,-0.7570
8155,-0.6375
8156,-0.2789
8157,0.1793
8158,0.4781
8159,0.6176
8160,0.7172
8161,0.5977
8162,0.5777
8163,0.4383
8164,0.3984
8165,0.3188
8166,0.0797
8167,-0.0797
8168,-0.1594
8169,-0.0797
8170,-0.0199
8171,0.0000
8172,0.0000
8173,0.0000
8174,0.0000
8175,0.0598
8176,0.0398
8177,-0.0199
8178,-0.0797
8179,-0.0199
8180,0.1594
8181,0.1395
8182,0.0398
8183,-0.3785
8184,-0.7371
8185,-1.0359
8186,-0.7770
8187,-0.2590
8188,0.1594
8189,0.5777
8190,0.4582
8191,0.2191
8192,0.1793
8193,0.1793
8194,0.1992
8195,0.2391
8196,0.0598
8197,-0.0398
8198,-0.0797
8199,-0.0199
8200,-0.0598
8201,-0.1594
8202,-0.1395
8203,-0.0996
8204,-0.0199
8205,0.1195
8206,0.0598
8207,0.1594
8208,0.2590
8209,0.2988
8210,0.2191
8211,0.0199
8212,-0.1195
8213,-0.1395
8214,-0.1594
8215,-0.1195
8216,0.0398
8217,0.0398
8218,0.0199
8219,-0.3984
8220,-0.5379
8221,-0.4980
8222,-0.3188
8223,-0.1793
8224,-0.1195
8225,-0.0598
8226,0.0398
8227,-0.0398
8228,0.0199
8229,-0.1195
8230,-0.0996
8231,-0.0996
8232,-0.1594
8233,-0.1395
8234,-0.1793
8235,-0.0996
8236,0.0598
8237,0.1395
8238,0.2590
8239,0.1992
8240,0.1195
8241,-0.0199
8242,0.0797
8243,0.1395
8244,0.2191
8245,0.1594
8246,0.0996
8247,0.0598
8248,0.0598
8249,0.0199
8250,-0.1793
8251,-0.4980
8252,-0.7172
8253,-0.8566
8254,-1.0359
8255,-0.8168
8256,-0.4184
8257,-0.0398
8258,0.3188
8259,0.4184
8260,0.4383
8261,0.3586
8262,0.1395
8263,-0.0199
8264,-0.0598
8265,0.0598
8266,0.1992
8267,0.2391
8268,0.1992
8269,0.2191
8270,0.1195
8271,0.0996
8272,0.0199
8273,-0.0598
8274,-0.1195
8275,-0.1793
8276,-0.0398
8277,-0.0199
8278,0.0000
8279,0.0598
8280,0.1395
8281,0.1195
8282,0.1594
8283,0.1594
8284,0.0996
8285,0.1992
8286,0.0797
8287,0.0000
8288,-0.0996
8289,-0.1793
8290,-0.3387
8291,-0.6973
8292,-0.8168
8293,-0.6973
8294,-0.5777
8295,-0.6773
8296,-0.5379
8297,-0.3387
8298,-0.0797
8299,0.1195
8300,0.2789
8301,0.4383
8302,0.3785
8303,0.4781
8304,0.5379
8305,0.4980
8306,0.4184
8307,0.4582
8308,0.3785
8309,0.2789
8310,0.0598
8311,-0.1793
8312,-0.1793
8313,-0.0797
8314,0.0199
8315,0.0199
8316,0.0797
8317,-0.0996
8318,-0.3387
8319,-0.4582
8320,-0.3785
8321,-0.2191
8322,-0.2590
8323,-0.2590
8324,-0.1793
8325,-0.1594
8326,-0.0398
8327,0.1195
8328,0.1594
8329,0.2590
8330,0.1992
8331,0.1594
8332,0.0398
8333,-0.2988
8334,-0.4980
8335,-0.5180
8336,-0.3387
8337,-0.0996
8338,0.0996
8339,0.2988
8340,0.3586
8341,0.4184
8342,0.4184
8343,0.4781
8344,0.4582
8345,0.3785
8346,0.0797
8347,-0.0797
8348,-0.1395
8349,-0.0598
8350,0.0199
8351,0.0199
8352,0.0598
8353,-0.1195
8354,-0.2789
8355,-0.2191
8356,0.0000
8357,0.1395
8358,0.1594
8359,0.0996
8360,0.0199
8361,-0.1992
8362,-0.5977
8363,-0.6773
8364,-0.5379
8365,-0.3188
8366,-0.0199
8367,0.1992
8368,0.2789
8369,0.2789
8370,0.2590
8371,0.2391
8372,0.1594
8373,0.0398
8374,-0.1395
8375,-0.1594
8376,-0.0398
8377,0.0996
8378,0.2191
8379,0.1195
8380,0.0199
8381,-0.0398
8382,-0.0996
8383,-0.1594
8384,-0.1594
8385,-0.1594
8386,-0.0598
8387,-0.0797
8388,-0.2191
8389,-0.2988
8390,-0.2191
8391,-0.1195
8392,-0.0398
8393,0.0000
8394,0.0598
8395,0.0797
8396,0.0996
8397,0.0598
8398,-0.0996
8399,-0.0199
8400,0.0398
8401,0.1195
8402,0.1793
8403,0.2789
8404,0.2590
8405,0.1594
8406,0.0996
8407,-0.0199
8408,-0.1793
8409,-0.1992
8410,-0.0996
8411,-0.0797
8412,0.0199
8413,0.0996
8414,0.0398
8415,0.0598
8416,-0.0199
8417,-0.3188
8418,-0.4184
8419,-0.5379
8420,-0.5578
8421,-0.4980
8422,-0.2988
8423,-0.0996
8424,0.0398
8425,0.1195
8426,0.1793
8427,0.1395
8428,0.1395
8429,0.1992
8430,0.2391
8431,0.3387
8432,0.3188
8433,0.2590
8434,0.1992
8435,0.1195
8436,0.0996
8437,0.1195
8438,0.1195
8439,0.0996
8440,0.0000
8441,0.0000
8442,-0.0199
8443,-0.0797
8444,-0.0598
8445,0.0000
8446,-0.1992
8447,-0.1594
8448,0.0199
8449,0.1395
8450,0.2191
8451,-0.0199
8452,-0.3785
8453,-0.5777
8454,-0.5777
8455,-0.4383
8456,-0.3586
8457,-0.1195
8458,0.1195
8459,0.2590
8460,0.3785
8461,0.5180
8462,0.5379
8463,0.4184
8464,0.3785
8465,0.3785
8466,0.3387
8467,0.2391
8468,0.1793
8469,0.0996
8470,0.0199
8471,-0.1395
8472,-0.2988
8473,-0.3586
8474,-0.3387
8475,-0.3188
8476,-0.2391
8477,-0.0199
8478,0.2391
8479,0.2988
8480,0.3586
8481,0.3586
8482,0.3586
8483,0.3188
8484,0.2590
8485,0.0797
8486,-0.0797
8487,-0.0398
8488,0.0398
8489,0.1395
8490,0.2789
8491,0.3188
8492,0.2789
8493,0.1793
8494,0.0996
8495,0.0598
8496,-0.0199
8497,-0.2191
8498,-0.5578
8499,-0.8766
8500,-0.7172
8501,-0.4781
8502,-0.1793
8503,0.0598
8504,0.0398
8505,0.0199
8506,-0.1992
8507,-0.7371
8508,-0.8168
8509,-0.5777
8510,-0.2789
8511,-0.0398
8512,0.0797
8513,0.0996
8514,0.0797
8515,0.1793
8516,0.1793
8517,0.1195
8518,-0.1793
8519,-0.1793
8520,0.0598
8521,0.3188
8522,0.5180
8523,0.5777
8524,0.7770
8525,0.8168
8526,0.7371
8527,0.5977
8528,0.5180
8529,0.1594
8530,-0.2590
8531,-0.4980
8532,-0.5977
8533,-0.5578
8534,-0.3984
8535,-0.1793
8536,0.0398
8537,0.2590
8538,0.4184
8539,0.3984
8540,0.3387
8541,0.1992
8542,0.0797
8543,0.0598
8544,0.0398
8545,-0.0598
8546,-0.2391
8547,-0.2988
8548,-0.3188
8549,-0.2988
8550,-0.1395
8551,-0.0398
8552,0.0000
8553,0.0199
8554,0.0398
8555,0.0797
8556,0.1395
8557,0.0398
8558,-0.0398
8559,-0.2391
8560,-0.1992
8561,-0.1195
8562,-0.0398
8563,0.0000
8564,0.0398
8565,0.0000
8566,-0.2191
8567,-0.3387
8568,-0.3785
8569,-0.4383
8570,-0.2789
8571,-0.0398
8572,0.1793
8573,0.1793
8574,0.1992
8575,0.1395
8576,0.1195
8577,0.2191
8578,0.1594
8579,0.1793
8580,-0.0199
8581,-0.2391
8582,-0.2590
8583,-0.1793
8584,-0.0398
8585,-0.0797
8586,-0.0398
8587,0.0199
8588,0.2191
8589,0.3188
8590,0.2789
8591,0.0398
8592,-0.2590
8593,-0.2590
8594,-0.1395
8595,0.1793
8596,0.3387
8597,0.4582
8598,0.3387
8599,0.1992
8600,0.2391
8601,0.2789
8602,0.2391
8603,0.1594
8604,0.0199
8605,0.1793
8606,0.3984
8607,0.4980
8608,0.4980
8609,0.4184
8610,0.3387
8611,0.0797
8612,-0.0598
8613,-0.0598
8614,-0.1195
8615,-0.1195
8616,-0.0199
8617,-0.0398
8618,-0.0398
8619,-0.0398
8620,0.0199
8621,0.0398
8622,0.0000
8623,0.0398
8624,-0.0398
8625,-0.0996
8626,-0.0996
8627,-0.0797
8628,-0.0398
8629,-0.0797
8630,-0.0199
8631,-0.0199
8632,-0.2391
8633,-0.4781
8634,-0.5180
8635,-0.3785
8636,-0.2391
8637,-0.2391
8638,-0.0996
8639,0.0797
8640,0.2789
8641,0.3984
8642,0.4383
8643,0.3586
8644,0.3188
8645,0.2590
8646,-0.2391
8647,-0.2391
8648,-0.1195
8649,-0.0996
8650,-0.0598
8651,0.0000
8652,0.0398
8653,0.0398
8654,-0.3387
8655,-0.4383
8656,-0.3785
8657,-0.1992
8658,0.1594
8659,0.2988
8660,0.4184
8661,0.3984
8662,0.2988
8663,0.2391
8664,0.1195
8665,0.0000
8666,-0.0797
8667,-0.0199
8668,0.0398
8669,-0.1594
8670,-0.2590
8671,-0.3188
8672,-0.2789
8673,-0.1992
8674,-0.1793
8675,-0.1992
8676,-0.1594
8677,-0.1594
8678,-0.1195
8679,-0.0996
8680,-0.1793
8681,-0.4781
8682,-0.5777
8683,-0.4980
8684,-0.3188
8685,-0.0996
8686,0.0996
8687,0.1594
8688,0.1992
8689,0.2391
8690,0.2789
8691,0.2590
8692,0.2590
8693,0.1594
8694,0.1195
8695,0.0398
8696,0.0598
8697,0.0000
8698,-0.1793
8699,-0.2391
8700,-0.1594
8701,-0.1195
8702,-0.0398
8703,0.0199
8704,0.0797
8705,0.0996
8706,0.0797
8707,0.0199
8708,-0.0199
8709,-0.0398
8710,-0.1195
8711,-0.2191
8712,-0.5180
8713,-0.5379
8714,-0.3785
8715,-0.2391
8716,-0.1395
8717,-0.0797
8718,0.0000
8719,0.1195
8720,-0.0598
8721,-0.1195
8722,-0.0598
8723,0.1594
8724,0.1992
8725,-0.0398
8726,-0.0199
8727,-0.0996
8728,0.0398
8729,0.0996
8730,0.0996
8731,0.0199
8732,0.0199
8733,0.1195
8734,0.1195
8735,0.1395
8736,0.1594
8737,0.1793
8738,0.1195
8739,0.0398
8740,-0.1195
8741,-0.1793
8742,-0.2590
8743,-0.2789
8744,-0.0996
8745,0.2391
8746,0.3785
8747,0.2988
8748,-0.1793
8749,-0.2789
8750,-0.0996
8751,0.1992
8752,0.3586
8753,0.4781
8754,0.4184
8755,0.4383
8756,0.3188
8757,0.1594
8758,-0.0398
8759,-0.1594
8760,-0.1992
8761,-0.2789
8762,-0.2590
8763,-0.2391
8764,-0.2191
8765,-0.2590
8766,-0.2191
8767,-0.2191
8768,-0.1594
8769,-0.1594
8770,-0.1594
8771,-0.2988
8772,-0.2988
8773,-0.4781
8774,-0.8566
8775,-0.8367
8776,-0.6773
8777,-0.3586
8778,-0.0996
8779,0.1793
8780,0.2988
8781,0.3785
8782,0.4184
8783,0.4980
8784,0.3785
8785,0.3188
8786,0.3387
8787,0.2988
8788,0.2590
8789,0.2191
8790,0.1992
8791,0.0000
8792,-0.1395
8793,-0.1395
8794,-0.1594
8795,-0.0598
8796,-0.2191
8797,-0.3785
8798,-0.2391
8799,-0.0598
8800,0.1594
8801,0.1594
8802,-0.3785
8803,-0.5578
8804,-0.3387
8805,0.0797
8806,0.3586
8807,0.4980
8808,0.5777
8809,0.4980
8810,0.4184
8811,0.1992
8812,-0.0398
8813,-0.2789
8814,-0.7371
8815,-0.6773
8816,-0.4184
8817,-0.0598
8818,0.1793
8819,0.3188
8820,0.4582
8821,0.5379
8822,0.5777
8823,0.5180
8824,0.4781
8825,0.3984
8826,0.2191
8827,0.0398
8828,-0.0797
8829,-0.2391
8830,-0.1992
8831,-0.1395
8832,-0.0996
8833,0.0398
8834,0.1395
8835,0.1793
8836,0.1594
8837,0.1395
8838,0.1195
8839,0.0797
8840,0.1195
8841,0.1395
8842,0.1195
8843,0.1992
8844,0.2391
8845,0.1594
8846,0.1195
8847,0.1195
8848,0.0797
8849,0.0598
8850,0.0598
8851,0.0398
8852,0.0398
8853,-0.0199
8854,-0.0398
8855,0.0398
8856,0.0398
8857,-0.1395
8858,-0.1992
8859,-0.3586
8860,-0.3984
8861,-0.2191
8862,-0.1195
8863,0.1395
8864,0.1594
8865,0.2391
8866,0.2789
8867,0.1594
8868,0.2590
8869,0.1793
8870,0.2988
8871,0.4582
8872,0.3785
8873,0.2590
8874,0.3387
8875,0.2590
8876,0.1793
8877,0.0797
8878,0.0598
8879,0.0000
8880,-0.0996
8881,-0.5180
8882,-0.7371
8883,-0.6176
8884,-0.5777
8885,-0.3387
8886,-0.6176
8887,-0.6574
8888,-0.2789
8889,0.1594
8890,0.5379
8891,0.7371
8892,0.7172
8893,0.6375
8894,0.5379
8895,0.4383
8896,0.3984
8897,0.2988
8898,0.2191
8899,0.1195
8900,-0.0398
8901,-0.1594
8902,-0.2191
8903,-0.2988
8904,-0.2988
8905,-0.1793
8906,0.0000
8907,0.0398
8908,0.0797
8909,0.0598
8910,-0.0199
8911,-0.0398
8912,-0.0199
8913,0.1195
8914,0.1992
8915,0.2191
8916,0.1992
8917,0.2391
8918,0.1395
8919,0.0996
8920,0.0199
8921,0.0199
8922,0.0398
8923,-0.0598
8924,-0.1793
8925,-0.1195
8926,-0.0996
8927,-0.0797
8928,-0.0598
8929,0.0000
8930,-0.0398
8931,-0.1594
8932,-0.2191
8933,-0.4383
8934,-0.6773
8935,-0.6375
8936,-0.4582
8937,-0.1992
8938,0.0199
8939,0.2391
8940,0.3387
8941,0.4980
8942,0.4980
8943,0.5180
8944,0.3785
8945,0.2590
8946,0.0996
8947,-0.1195
8948,-0.1793
8949,-0.2191
8950,-0.2191
8951,-0.2391
8952,-0.4781
8953,-0.5777
8954,-0.5379
8955,-0.3586
8956,-0.0996
8957,0.1594
8958,0.2789
8959,0.3387
8960,0.3188
8961,0.3785
8962,0.2590
8963,0.0398
8964,-0.0398
8965,-0.1793
8966,-0.2590
8967,-0.2988
8968,-0.4781
8969,-0.4781
8970,-0.5180
8971,-0.4184
8972,-0.3387
8973,-0.2391
8974,-0.1395
8975,-0.1594
8976,-0.0797
8977,0.0797
8978,0.3586
8979,0.4383
8980,0.3984
8981,0.1992
8982,0.0996
8983,0.0000
8984,-0.0199
8985,-0.0398
8986,-0.1195
8987,-0.5578
8988,-0.7770
8989,-0.6574
8990,-0.4383
8991,-0.1793
8992,-0.0996
8993,0.0000
8994,0.1992
8995,0.2988
8996,0.3785
8997,0.4582
8998,0.5578
8999,0.5180
9000,0.4184
9001,0.2789
9002,0.0996
9003,0.1195
9004,0.0199
9005,0.0398
9006,0.0398
9007,0.0398
9008,0.0398
9009,-0.0199
9010,0.0398
9011,-0.0199
9012,0.0199
9013,0.0000
9014,-0.0398
9015,0.0199
9016,0.0398
9017,0.1395
9018,-0.0598
9019,-0.3785
9020,-0.4184
9021,-0.2988
9022,-0.0398
9023,0.1992
9024,0.1594
9025,0.1992
9026,0.1395
9027,0.0797
9028,0.0996
9029,0.0398
9030,0.0000
9031,0.0996
9032,0.0598
9033,-0.0598
9034,-0.1395
9035,-0.2191
9036,-0.3188
9037,-0.2988
9038,-0.2590
9039,-0.3984
9040,-0.4781
9041,-0.5379
9042,-0.4980
9043,-0.3387
9044,-0.3387
9045,-0.3984
9046,-0.2191
9047,-0.0598
9048,0.2191
9049,0.2391
9050,0.2590
9051,0.3188
9052,0.3586
9053,0.1195
9054,-0.2789
9055,-0.4582
9056,-0.2391
9057,-0.0199
9058,0.1395
9059,0.2191
9060,0.2988
9061,0.3785
9062,0.2988
9063,0.3785
9064,0.3188
9065,0.3188
9066,0.1793
9067,-0.0996
9068,-0.3188
9069,-0.3188
9070,-0.1793
9071,-0.0598
9072,0.1195
9073,0.2191
9074,0.2988
9075,0.2789
9076,0.1195
9077,-0.0398
9078,-0.0797
9079,-0.0199
9080,0.1195
9081,0.1793
9082,0.0598
9083,0.0000
9084,-0.3785
9085,-0.3984
9086,-0.3586
9087,-0.2988
9088,-0.0598
9089,0.0398
9090,0.1395
9091,0.1395
9092,0.1594
9093,0.2391
9094,0.0797
9095,-0.1195
9096,-0.1793
9097,-0.0996
9098,-0.0398
9099,0.0398
9100,0.0398
9101,0.0797
9102,-0.0199
9103,-0.0398
9104,-0.0797
9105,-0.1195
9106,-0.1594
9107,-0.2191
9108,-0.1594
9109,-0.2191
9110,-0.2789
9111,-0.2391
9112,-0.2988
9113,-0.3188
9114,-0.4383
9115,-0.8367
9116,-1.1754
9117,-1.2551
9118,-1.2551
9119,-1.1355
9120,-0.6973
9121,-0.0797
9122,0.4582
9123,0.7570
9124,0.8766
9125,0.9363
9126,0.6973
9127,0.0398
9128,-0.5180
9129,-0.8367
9130,-1.0160
9131,-0.8168
9132,-0.5379
9133,-0.1992
9134,0.0797
9135,0.1793
9136,0.1992
9137,0.2391
9138,-0.0199
9139,-0.0797
9140,0.1395
9141,0.3387
9142,0.5180
9143,0.5379
9144,0.5379
9145,0.4582
9146,0.2988
9147,0.1992
9148,-0.0996
9149,-0.7371
9150,-1.0957
9151,-1.0359
9152,-0.5578
9153,-0.1594
9154,0.1395
9155,0.3387
9156,0.4383
9157,0.4383
9158,0.3984
9159,0.3785
9160,0.3387
9161,0.1594
9162,0.0797
9163,0.1195
9164,0.0797
9165,0.0199
9166,-0.0199
9167,-0.1793
9168,-0.2191
9169,-0.2789
9170,-0.2590
9171,-0.2590
9172,-0.1793
9173,-0.0598
9174,-0.0199
9175,-0.0598
9176,-0.0398
9177,-0.0598
9178,-0.1594
9179,-0.2590
9180,-0.1594
9181,-0.1594
9182,-0.1195
9183,-0.0996
9184,-0.1395
9185,-0.1395
9186,-0.2391
9187,-0.2191
9188,-0.1195
9189,-0.0996
9190,-0.1793
9191,-0.3785
9192,-0.6973
9193,-0.6574
9194,-0.5180
9195,-0.3387
9196,-0.0797
9197,-0.0199
9198,-0.0598
9199,-0.1195
9200,-0.2789
9201,0.0398
9202,0.3586
9203,0.6574
9204,0.7969
9205,0.8566
9206,0.7570
9207,0.5379
9208,0.2789
9209,-0.0199
9210,-0.3188
9211,-0.3984
9212,-0.3387
9213,-0.1992
9214,-0.0398
9215,0.0996
9216,0.1395
9217,0.0996
9218,0.1594
9219,0.2191
9220,0.1395
9221,0.0797
9222,0.0598
9223,0.0000
9224,-0.0996
9225,-0.2191
9226,-0.3188
9227,-0.3387
9228,-0.2590
9229,-0.1992
9230,-0.1195
9231,-0.0199
9232,0.0199
9233,0.0598
9234,0.0996
9235,0.0996
9236,0.0398
9237,0.0598
9238,0.0398
9239,-0.0598
9240,-0.0598
9241,-0.1195
9242,-0.1594
9243,-0.0398
9244,-0.0598
9245,-0.0199
9246,0.0000
9247,0.0398
9248,0.0996
9249,0.0797
9250,0.0598
9251,-0.0598
9252,-0.4383
9253,-0.5578
9254,-0.6176
9255,-0.3984
9256,-0.2590
9257,-0.3188
9258,-0.2789
9259,-0.2391
9260,-0.0398
9261,0.1594
9262,0.3188
9263,0.3785
9264,0.1395
9265,-0.2988
9266,-0.4582
9267,-0.3387
9268,-0.1395
9269,0.0598
9270,0.1992
9271,0.1395
9272,0.1793
9273,0.1992
9274,0.2988
9275,0.3785
9276,0.0797
9277,0.0199
9278,0.0398
9279,0.0996
9280,0.1594
9281,0.1195
9282,-0.0797
9283,-0.3387
9284,-0.4582
9285,-0.4383
9286,-0.2789
9287,-0.1195
9288,-0.0398
9289,-0.0398
9290,-0.0996
9291,-0.3785
9292,-0.3188
9293,0.0199
9294,0.3586
9295,0.5977
9296,0.6375
9297,0.5777
9298,0.4383
9299,0.2789
9300,0.1793
9301,0.1195
9302,0.0996
9303,0.0797
9304,-0.1992
9305,-0.3188
9306,-0.2191
9307,-0.1594
9308,-0.1594
9309,-0.1594
9310,-0.0996
9311,-0.2391
9312,-0.4980
9313,-0.4184
9314,-0.3586
9315,-0.3188
9316,0.0000
9317,0.0000
9318,-0.2191
9319,-0.1793
9320,0.1594
9321,0.2191
9322,0.1793
9323,0.3188
9324,0.3188
9325,0.0598
9326,-0.1992
9327,-0.8168
9328,-0.8766
9329,-0.6574
9330,-0.2590
9331,-0.0199
9332,0.2789
9333,0.3984
9334,0.4781
9335,0.6973
9336,0.5578
9337,0.3586
9338,0.1395
9339,-0.1395
9340,-0.2191
9341,-0.1793
9342,0.0996
9343,0.1594
9344,0.1395
9345,0.1594
9346,0.2191
9347,0.2590
9348,0.2789
9349,0.3188
9350,0.3984
9351,0.2391
9352,0.0000
9353,0.0199
9354,0.0996
9355,0.1594
9356,0.1594
9357,0.0398
9358,-0.0797
9359,0.0398
9360,0.2191
9361,0.3188
9362,0.2988
9363,0.2590
9364,0.1992
9365,0.1395
9366,0.0996
9367,-0.1195
9368,-0.7371
9369,-1.2152
9370,-1.2352
9371,-0.8168
9372,-0.1793
9373,0.2988
9374,0.4582
9375,0.4781
9376,0.5180
9377,0.4582
9378,0.2191
9379,0.1395
9380,-0.0398
9381,-0.1793
9382,-0.1195
9383,-0.0797
9384,-0.0199
9385,-0.0398
9386,-0.0398
9387,-0.0996
9388,-0.0199
9389,-0.0797
9390,-0.1992
9391,-0.3188
9392,-0.4383
9393,-0.7570
9394,-0.8566
9395,-0.5180
9396,-0.0996
9397,0.2988
9398,0.5180
9399,0.5379
9400,0.4980
9401,0.4184
9402,0.2391
9403,-0.2191
9404,-0.6574
9405,-0.6773
9406,-0.5578
9407,-0.1992
9408,0.0797
9409,0.1793
9410,0.0598
9411,0.1195
9412,0.1594
9413,0.2590
9414,0.2191
9415,0.0797
9416,0.1992
9417,0.2590
9418,0.2391
9419,0.3188
9420,0.3785
9421,0.3586
9422,0.2590
9423,0.2988
9424,0.1195
9425,-0.0199
9426,-0.1395
9427,-0.1594
9428,-0.1195
9429,-0.0996
9430,-0.0598
9431,-0.0797
9432,0.0000
9433,-0.0598
9434,-0.1992
9435,-0.1395
9436,-0.5578
9437,-0.5977
9438,-0.3984
9439,-0.2789
9440,0.0199
9441,0.2590
9442,0.3387
9443,0.3785
9444,0.1793
9445,0.0598
9446,0.0199
9447,-0.0398
9448,0.0598
9449,0.0996
9450,-0.0398
9451,-0.2988
9452,-0.4980
9453,-0.5578
9454,-0.4184
9455,-0.0797
9456,0.2191
9457,0.4582
9458,0.5777
9459,0.6375
9460,0.5777
9461,0.4781
9462,0.3188
9463,0.1992
9464,-0.0598
9465,-0.0996
9466,-0.4383
9467,-0.6574
9468,-0.7570
9469,-0.4383
9470,0.0199
9471,0.4184
9472,0.5379
9473,0.6176
9474,0.6773
9475,0.5977
9476,0.3984
9477,0.0398
9478,-0.1395
9479,-0.4980
9480,-0.4781
9481,-0.2789
9482,0.0398
9483,0.2789
9484,0.2789
9485,0.2789
9486,0.1793
9487,0.1195
9488,0.1395
9489,0.0000
9490,-0.1594
9491,-0.1992
9492,-0.1793
9493,-0.0797
9494,0.0598
9495,0.1395
9496,0.1195
9497,-0.1195
9498,-0.3188
9499,-0.3387
9500,-0.3785
9501,-0.7172
9502,-0.5578
9503,-0.2789
9504,0.1594
9505,0.4781
9506,0.5379
9507,0.5977
9508,0.5977
9509,0.6176
9510,0.5578
9511,0.3586
9512,-0.0797
9513,-0.8965
9514,-0.9164
9515,-0.6773
9516,-0.1992
9517,0.0996
9518,0.3387
9519,0.3984
9520,0.3586
9521,0.2590
9522,0.1594
9523,0.1395
9524,0.2988
9525,0.4582
9526,0.3984
9527,0.4184
9528,0.2789
9529,-0.4184
9530,-0.6773
9531,-0.4781
9532,-0.1395
9533,0.1992
9534,0.4781
9535,0.6773
9536,0.7371
9537,0.7570
9538,0.5977
9539,0.4184
9540,0.2391
9541,0.2789
9542,0.1793
9543,0.1395
9544,0.1395
9545,0.0398
9546,0.0598
9547,0.0199
9548,0.0199
9549,0.0398
9550,0.0000
9551,-0.0199
9552,-0.0598
9553,-0.0398
9554,-0.0996
9555,-0.1395
9556,-0.1195
9557,-0.1594
9558,-0.1793
9559,-0.2391
9560,-0.1793
9561,-0.1395
9562,-0.0398
9563,0.0199
9564,0.0797
9565,0.0598
9566,0.1195
9567,-0.1594
9568,-0.2590
9569,-0.3984
9570,-0.4383
9571,-0.2191
9572,-0.1793
9573,-0.0598
9574,-0.2391
9575,-0.1594
9576,-0.1395
9577,-0.1793
9578,-0.1395
9579,-0.1395
9580,-0.1793
9581,-0.2191
9582,-0.2191
9583,-0.1195
9584,0.0797
9585,0.2191
9586,0.2988
9587,0.2590
9588,0.3984
9589,0.4184
9590,0.3785
9591,0.2988
9592,0.1594
9593,0.2789
9594,0.1793
9595,0.0797
9596,0.0000
9597,-0.0996
9598,-0.2988
9599,-0.7770
9600,-0.8168
9601,-0.6574
9602,-0.3984
9603,-0.1195
9604,0.2391
9605,0.4582
9606,0.6973
9607,0.6773
9608,0.5977
9609,0.3984
9610,0.2590
9611,0.0996
9612,0.0398
9613,-0.0199
9614,0.0598
9615,0.0598
9616,0.0398
9617,-0.1195
9618,-0.2789
9619,-0.3586
9620,-0.4184
9621,-0.3984
9622,-0.3188
9623,-0.2391
9624,-0.2391
9625,-0.2191
9626,-0.2789
9627,-0.1395
9628,0.1594
9629,0.1992
9630,0.2590
9631,0.2590
9632,0.1793
9633,0.0598
9634,-0.0996
9635,-0.1395
9636,-0.1992
9637,-0.1395
9638,-0.0996
9639,-0.0797
9640,-0.0996
9641,-0.2391
9642,-0.4781
9643,-0.3188
9644,-0.1992
9645,0.0199
9646,0.1793
9647,0.1793
9648,0.2590
9649,0.1992
9650,0.1793
9651,0.0996
9652,-0.0398
9653,-0.2191
9654,-0.5777
9655,-0.7770
9656,-0.7969
9657,-0.7570
9658,-0.5379
9659,-0.2988
9660,0.0000
9661,0.1195
9662,0.1992
9663,0.1594
9664,0.0398
9665,0.0398
9666,-0.0598
9667,-0.1594
9668,-0.2789
9669,-0.3387
9670,-0.3188
9671,-0.3387
9672,-0.3188
9673,-0.3586
9674,-0.3984
9675,-0.4980
9676,-0.4582
9677,-0.2789
9678,-0.0199
9679,0.1594
9680,0.2391
9681,0.3188
9682,0.2391
9683,0.1594
9684,0.1594
9685,0.2191
9686,0.2391
9687,0.3188
9688,0.2590
9689,0.0598
9690,-0.2590
9691,-0.4383
9692,-0.3984
9693,-0.3188
