Time (s),Kanaal 1
0,-0.2789
1,-0.2191
2,-0.1992
3,-0.2789
4,-0.2191
5,-0.0996
6,0.0996
7,0.0996
8,0.0398
9,-0.0398
10,-0.0398
11,-0.1395
12,-0.1793
13,-0.1395
14,-0.1793
15,-0.1992
16,-0.1992
17,-0.2391
18,-0.2590
19,-0.2789
20,-0.1395
21,-0.1594
22,-0.0797
23,-0.0996
24,-0.0199
25,0.0000
26,0.0199
27,0.0398
28,0.0000
29,0.0598
30,0.0797
31,0.0797
32,0.0000
33,0.0598
34,0.0199
35,0.0598
36,0.0797
37,0.0797
38,0.0199
39,0.0598
40,0.1395
41,0.1992
42,0.2988
43,0.3188
44,0.4383
45,0.3188
46,0.0797
47,0.0598
48,0.0598
49,-0.0598
50,-0.1195
51,-0.1992
52,-0.1195
53,-0.1594
54,-0.1793
55,-0.2191
56,-0.1992
57,-0.0996
58,-0.0797
59,0.0000
60,0.0398
61,0.0797
62,0.0398
63,0.0398
64,0.0000
65,-0.0199
66,-0.0598
67,-0.0398
68,-0.0199
69,-0.0996
70,-0.0797
71,-0.0797
72,-0.0598
73,-0.0797
74,-0.0797
75,-0.0996
76,-0.0598
77,-0.0598
78,-0.0199
79,-0.0598
80,-0.0797
81,-0.0996
82,-0.0398
83,-0.1195
84,-0.0598
85,-0.0598
86,-0.0797
87,0.0000
88,0.1594
89,0.2191
90,0.2590
91,0.0996
92,-0.0398
93,-0.0199
94,-0.0199
95,-0.0398
96,-0.0598
97,-0.0398
98,-0.0598
99,-0.1195
100,-0.2191
101,-0.1992
102,-0.1992
103,-0.1992
104,-0.1992
105,-0.1594
106,-0.2191
107,-0.2391
108,-0.2590
109,-0.2391
110,-0.1793
111,-0.1793
112,-0.0996
113,-0.1395
114,-0.1195
115,-0.1195
116,-0.0598
117,0.0199
118,-0.0398
119,0.0000
120,0.0199
121,-0.0199
122,0.1992
123,0.2590
124,0.2590
125,0.2789
126,0.1594
127,-0.0398
128,-0.1992
129,-0.2789
130,-0.2391
131,-0.2789
132,-0.2191
133,-0.1793
134,-0.1594
135,-0.1992
136,-0.1992
137,-0.1195
138,0.0000
139,0.0000
140,0.0199
141,-0.0199
142,-0.0598
143,-0.0797
144,-0.1195
145,-0.0996
146,-0.0598
147,-0.0996
148,-0.0398
149,-0.1195
150,-0.1395
151,-0.0996
152,-0.0797
153,-0.0398
154,-0.0598
155,-0.0398
156,0.0000
157,-0.0797
158,-0.1195
159,-0.0598
160,-0.0199
161,-0.0598
162,-0.0598
163,-0.0398
164,-0.0398
165,-0.0199
166,-0.0398
167,-0.0598
168,-0.0199
169,0.0000
170,0.0000
171,-0.0797
172,-0.0598
173,-0.0199
174,0.0398
175,0.0797
176,0.0797
177,0.0199
178,0.1195
179,0.0996
180,0.0199
181,0.0398
182,0.0000
183,-0.0598
184,0.0398
185,0.0598
186,0.0398
187,0.1195
188,0.1395
189,0.1195
190,0.1992
191,0.1395
192,0.1793
193,0.2789
194,0.3188
195,0.3785
196,0.3387
197,0.2590
198,0.1793
199,0.0797
200,0.0199
201,-0.0398
202,-0.0797
203,-0.0797
204,-0.0398
205,0.0199
206,0.0199
207,-0.0199
208,0.0000
209,0.0199
210,-0.0398
211,0.0598
212,0.0797
213,0.0797
214,-0.0199
215,-0.0199
216,0.0199
217,-0.0199
218,0.0199
219,0.0598
220,0.0996
221,0.0996
222,0.0797
223,0.1195
224,0.0797
225,0.0996
226,0.1594
227,0.2391
228,0.1395
229,0.0398
230,0.0398
231,0.0199
232,0.0000
233,0.0199
234,0.0000
235,0.0598
236,0.1195
237,0.0598
238,-0.0598
239,-0.0598
240,-0.0797
241,-0.0996
242,-0.0598
243,-0.0996
244,-0.0598
245,-0.0797
246,-0.1195
247,-0.0598
248,-0.0996
249,-0.0797
250,-0.0996
251,-0.0996
252,-0.0598
253,-0.0996
254,-0.0398
255,-0.0199
256,0.0199
257,0.0000
258,-0.0996
259,-0.1395
260,-0.1195
261,-0.1793
262,-0.0996
263,-0.0598
264,-0.0598
265,-0.0398
266,-0.0398
267,-0.0398
268,0.0398
269,0.0199
270,0.0398
271,0.0199
272,-0.0199
273,-0.0199
274,-0.0199
275,0.0000
276,-0.0598
277,-0.0398
278,-0.0598
279,-0.1195
280,-0.0598
281,-0.0598
282,-0.0398
283,-0.0598
284,-0.0996
285,-0.1195
286,-0.0797
287,-0.0797
288,-0.1195
289,-0.2391
290,-0.2590
291,-0.2590
292,-0.1793
293,-0.1395
294,-0.1594
295,-0.1594
296,-0.1395
297,-0.1395
298,-0.0996
299,-0.1195
300,0.0000
301,0.1594
302,0.1793
303,0.1594
304,0.0199
305,-0.0598
306,-0.1594
307,-0.2391
308,-0.2988
309,-0.3586
310,-0.3188
311,-0.2988
312,-0.2988
313,-0.1992
314,-0.0398
315,0.0199
316,0.0598
317,0.0000
318,-0.1594
319,-0.1594
320,-0.1793
321,-0.1594
322,-0.0598
323,-0.0996
324,-0.0996
325,-0.1195
326,-0.0996
327,-0.1594
328,-0.1195
329,-0.0598
330,0.0000
331,0.0000
332,0.0598
333,0.0000
334,0.0000
335,-0.0199
336,-0.0199
337,-0.0199
338,0.0000
339,0.0598
340,0.0000
341,0.0598
342,0.1395
343,0.0996
344,0.1195
345,0.0598
346,0.0398
347,-0.0199
348,-0.0398
349,-0.1195
350,-0.1594
351,-0.1395
352,-0.0797
353,-0.0598
354,-0.0598
355,-0.0797
356,-0.0398
357,-0.0797
358,-0.0199
359,0.0398
360,0.0598
361,0.0797
362,0.0398
363,0.0598
364,0.0797
365,0.1195
366,0.1195
367,0.1195
368,0.0598
369,0.0598
370,0.0398
371,0.0398
372,0.0598
373,0.0797
374,0.1195
375,0.1992
376,0.2191
377,0.0996
378,0.0398
379,0.0398
380,0.0199
381,0.0598
382,0.0398
383,0.0598
384,0.0598
385,-0.0598
386,-0.0398
387,0.0000
388,0.0000
389,-0.0199
390,-0.0398
391,-0.0398
392,-0.0398
393,-0.0199
394,0.0199
395,0.1195
396,0.2789
397,0.2191
398,0.2191
399,0.0598
400,0.0199
401,-0.1195
402,-0.1395
403,-0.0797
404,0.0000
405,0.0996
406,0.0398
407,-0.1195
408,-0.3387
409,-0.4184
410,-0.4383
411,-0.4582
412,-0.3387
413,-0.3188
414,-0.3387
415,-0.2590
416,-0.1793
417,0.1195
418,0.1594
419,0.0996
420,-0.0398
421,-0.1992
422,-0.1793
423,-0.0797
424,0.0199
425,0.0398
426,0.0598
427,0.0598
428,0.1195
429,0.1395
430,0.0996
431,0.0996
432,0.1395
433,0.2191
434,0.1992
435,0.0797
436,0.0398
437,0.0598
438,0.0398
439,0.0398
440,0.0598
441,0.0199
442,-0.0398
443,0.0598
444,0.1195
445,0.1793
446,0.1395
447,0.1793
448,0.0996
449,0.0996
450,0.0398
451,-0.0199
452,-0.0996
453,-0.1195
454,-0.0797
455,-0.0398
456,-0.0797
457,-0.0199
458,0.0000
459,0.0598
460,0.0797
461,0.0996
462,0.0398
463,0.0199
464,0.0598
465,0.0797
466,0.0199
467,-0.0996
468,-0.0996
469,-0.0598
470,0.0199
471,0.0398
472,0.0797
473,0.0398
474,0.0598
475,0.0797
476,0.1195
477,0.1594
478,0.1395
479,0.1594
480,0.1793
481,0.1793
482,0.0797
483,0.1793
484,0.1594
485,0.1195
486,0.0199
487,0.0199
488,0.0199
489,0.0199
490,-0.0199
491,-0.0199
492,-0.0996
493,-0.0598
494,-0.0598
495,0.0000
496,0.0000
497,0.0199
498,0.0398
499,0.0598
500,0.0598
501,0.0598
502,0.1195
503,0.0797
504,0.0398
505,0.0199
506,-0.0398
507,-0.0199
508,-0.0398
509,0.0996
510,0.1395
511,0.1195
512,0.2191
513,0.1793
514,0.0398
515,0.0199
516,0.0598
517,-0.0598
518,-0.1594
519,-0.2391
520,-0.2191
521,-0.2191
522,-0.1793
523,-0.1594
524,-0.1395
525,-0.0797
526,-0.1195
527,-0.0996
528,-0.0598
529,0.0996
530,0.0598
531,-0.0398
532,-0.0797
533,0.0000
534,0.0199
535,0.1195
536,0.0797
537,0.0199
538,-0.0598
539,0.0000
540,0.0199
541,0.0598
542,0.0598
543,0.0199
544,0.1594
545,0.2191
546,0.2191
547,0.1793
548,0.1594
549,0.0598
550,0.1395
551,0.1793
552,0.0996
553,-0.0398
554,-0.0398
555,0.0000
556,0.0199
557,-0.0398
558,-0.0398
559,0.0000
560,-0.0199
561,-0.0797
562,-0.0199
563,0.0199
564,-0.1195
565,-0.0199
566,-0.0199
567,-0.0398
568,0.0199
569,0.0398
570,0.0598
571,0.0199
572,0.0398
573,0.0199
574,-0.0398
575,-0.0797
576,-0.0598
577,-0.0398
578,-0.0598
579,-0.0598
580,-0.0598
581,-0.0598
582,0.0000
583,0.0398
584,-0.0398
585,-0.0199
586,-0.0199
587,-0.0398
588,-0.0996
589,-0.0598
590,-0.0199
591,-0.0598
592,-0.0199
593,-0.0398
594,-0.0598
595,-0.0398
596,-0.0398
597,-0.1395
598,-0.0996
599,-0.0996
600,-0.1395
601,-0.0996
602,-0.1395
603,-0.0996
604,-0.0797
605,-0.0398
606,-0.0996
607,-0.1395
608,-0.1594
609,-0.1594
610,-0.1992
611,-0.2590
612,-0.2988
613,-0.3785
614,-0.2789
615,-0.2191
616,-0.2590
617,-0.2391
618,-0.2590
619,-0.2789
620,-0.1992
621,-0.1992
622,-0.1793
623,-0.1395
624,-0.1594
625,-0.1793
626,-0.2391
627,-0.1992
628,-0.2191
629,-0.1395
630,-0.1395
631,-0.1395
632,-0.1195
633,-0.1195
634,-0.1195
635,-0.0797
636,-0.0199
637,0.0398
638,0.0199
639,-0.0398
640,0.0199
641,0.0398
642,0.1195
643,0.2191
644,0.2191
645,0.1195
646,0.1395
647,0.0598
648,0.0000
649,0.0199
650,0.0598
651,0.2391
652,0.2391
653,0.1594
654,0.0996
655,-0.0199
656,-0.1793
657,-0.3188
658,-0.3387
659,-0.3188
660,-0.2789
661,-0.2590
662,-0.2789
663,-0.2789
664,-0.2590
665,-0.2191
666,-0.1793
667,-0.1395
668,-0.0996
669,-0.0598
670,0.0199
671,0.0199
672,0.0797
673,0.0199
674,0.0398
675,0.0000
676,-0.0398
677,-0.0996
678,-0.0797
679,-0.0996
680,-0.0996
681,-0.1395
682,-0.1195
683,-0.0996
684,-0.1395
685,-0.0996
686,-0.1395
687,-0.0598
688,-0.0598
689,-0.0797
690,-0.1195
691,-0.1195
692,-0.0598
693,-0.0797
694,-0.0398
695,-0.0199
696,-0.0398
697,-0.0598
698,-0.0199
699,-0.0199
700,-0.0199
701,0.0000
702,-0.0398
703,0.0000
704,0.0000
705,0.0398
706,0.0996
707,0.1195
708,0.1992
709,0.1594
710,0.1195
711,0.0598
712,0.0000
713,-0.0199
714,0.0598
715,0.0598
716,0.0598
717,0.1195
718,0.0797
719,0.1395
720,0.1395
721,0.1195
722,0.1195
723,0.1395
724,0.1395
725,0.1195
726,0.2789
727,0.4184
728,0.3387
729,0.2191
730,0.0996
731,0.1195
732,0.1594
733,0.1992
734,0.1395
735,0.0797
736,-0.0797
737,-0.1195
738,-0.0996
739,-0.0797
740,-0.1195
741,-0.0398
742,0.0000
743,0.0000
744,0.0199
745,0.0398
746,0.0000
747,0.2590
748,0.4184
749,0.3586
750,0.2789
751,0.1594
752,0.0598
753,0.0797
754,0.1195
755,0.1992
756,0.1195
757,0.0199
758,0.0199
759,0.0398
760,-0.0398
761,-0.0398
762,-0.0199
763,-0.0199
764,0.0398
765,0.0398
766,0.0797
767,0.0797
768,0.0398
769,0.0797
770,0.1195
771,0.1195
772,0.1594
773,0.1594
774,0.1793
775,0.1992
776,0.1992
777,0.1395
778,0.1594
779,0.2391
780,0.2988
781,0.1992
782,0.1195
783,0.0000
784,0.0199
785,0.0000
786,0.0797
787,0.0797
788,0.0598
789,0.0199
790,0.0598
791,0.0199
792,0.0598
793,-0.0598
794,-0.0598
795,0.0000
796,-0.0996
797,-0.0398
798,-0.0598
799,-0.0996
800,-0.1195
801,-0.1195
802,-0.0996
803,-0.1395
804,-0.0797
805,-0.0398
806,-0.1195
807,-0.0996
808,-0.1195
809,-0.1992
810,-0.1395
811,-0.0797
812,-0.1395
813,-0.1395
814,-0.0797
815,-0.0996
816,0.0000
817,0.0000
818,0.0000
819,0.0398
820,0.0199
821,-0.1992
822,-0.2988
823,-0.1793
824,-0.0797
825,0.0199
826,0.0000
827,-0.0598
828,-0.1395
829,-0.1992
830,-0.1395
831,-0.0797
832,0.0996
833,0.1195
834,0.0797
835,0.1395
836,0.1992
837,0.2191
838,0.1594
839,-0.0199
840,-0.1594
841,-0.2191
842,-0.3387
843,-0.3984
844,-0.3984
845,-0.3984
846,-0.3387
847,-0.1793
848,-0.0797
849,-0.0797
850,-0.0797
851,-0.0598
852,-0.0996
853,-0.0996
854,-0.0797
855,-0.0398
856,-0.1195
857,-0.1195
858,-0.0797
859,-0.0199
860,0.0199
861,0.0797
862,0.1395
863,0.0598
864,0.0199
865,-0.0598
866,0.0000
867,0.0199
868,-0.0398
869,-0.0199
870,-0.0199
871,-0.0398
872,-0.0199
873,-0.0199
874,-0.0199
875,-0.0398
876,-0.1195
877,-0.1395
878,-0.0996
879,-0.0199
880,0.0199
881,0.0199
882,0.0797
883,0.1195
884,0.1395
885,0.1395
886,0.1195
887,0.1195
888,0.1594
889,0.1395
890,0.0996
891,0.2191
892,0.1594
893,0.1793
894,0.1195
895,0.0797
896,0.0000
897,-0.0199
898,0.0797
899,0.0797
900,0.0000
901,0.0598
902,0.1195
903,0.0996
904,0.1395
905,0.1395
906,0.1992
907,0.1992
908,0.1395
909,0.3188
910,0.4184
911,0.3984
912,0.3984
913,0.1395
914,0.0398
915,0.0598
916,0.0000
917,-0.0598
918,0.0199
919,0.0000
920,-0.0199
921,-0.0398
922,-0.1992
923,-0.4184
924,-0.4184
925,-0.3984
926,-0.2988
927,-0.1594
928,-0.0797
929,-0.0199
930,-0.0199
931,-0.0199
932,-0.1992
933,-0.2191
934,-0.1594
935,-0.0996
936,-0.0398
937,0.0199
938,0.0598
939,0.0996
940,0.0996
941,-0.0598
942,0.0398
943,0.0398
944,0.0398
945,-0.0398
946,-0.0598
947,-0.0598
948,-0.0598
949,-0.0398
950,-0.0598
951,0.0598
952,0.0797
953,0.0996
954,0.1793
955,0.3188
956,0.2789
957,0.2988
958,0.1395
959,0.1195
960,0.0996
961,0.0000
962,-0.0199
963,0.0598
964,0.1195
965,0.1195
966,0.1594
967,0.1395
968,0.0797
969,-0.0199
970,-0.0398
971,-0.0598
972,0.0199
973,0.0996
974,0.0199
975,0.0398
976,-0.0199
977,-0.0199
978,0.0000
979,-0.0398
980,-0.1395
981,-0.0797
982,0.0199
983,0.0996
984,0.0598
985,0.0000
986,0.0000
987,-0.0398
988,-0.0199
989,0.0797
990,0.1195
991,0.1395
992,0.1793
993,0.0598
994,0.0199
995,-0.0797
996,-0.0797
997,-0.1594
998,-0.1992
999,-0.1395
1000,-0.1195
1001,-0.1195
1002,-0.1594
1003,-0.1594
1004,-0.1992
1005,-0.1594
1006,-0.1395
1007,-0.1395
1008,-0.0996
1009,-0.0797
1010,-0.0797
1011,-0.0996
1012,0.0000
1013,0.1395
1014,0.2191
1015,0.1992
1016,0.1793
1017,0.1195
1018,0.0199
1019,-0.1195
1020,-0.0996
1021,-0.2191
1022,-0.1793
1023,-0.2191
1024,-0.2590
1025,-0.2789
1026,-0.2590
1027,-0.2590
1028,-0.1992
1029,-0.1793
1030,-0.1594
1031,-0.1395
1032,-0.0398
1033,-0.0797
1034,-0.0797
1035,0.1195
1036,0.1992
1037,0.2191
1038,0.1395
1039,0.0398
1040,0.0000
1041,-0.1195
1042,-0.0598
1043,-0.0398
1044,0.0000
1045,-0.0598
1046,-0.0996
1047,-0.1195
1048,-0.2391
1049,-0.2789
1050,-0.0598
1051,-0.0398
1052,-0.0199
1053,-0.0398
1054,-0.0797
1055,-0.1793
1056,-0.1793
1057,-0.1195
1058,-0.0797
1059,-0.0797
1060,-0.0199
1061,-0.0797
1062,-0.1195
1063,-0.1594
1064,-0.1395
1065,-0.1395
1066,-0.2191
1067,-0.1594
1068,-0.0598
1069,-0.1195
1070,-0.0398
1071,-0.0598
1072,0.0000
1073,0.0598
1074,0.0398
1075,0.1195
1076,0.1793
1077,0.1594
1078,0.2988
1079,0.3984
1080,0.5977
1081,0.3586
1082,0.1195
1083,-0.2391
1084,-0.3785
1085,-0.3984
1086,-0.4383
1087,-0.3984
1088,-0.1992
1089,0.0199
1090,0.0000
1091,-0.0398
1092,-0.1195
1093,-0.1195
1094,-0.1195
1095,-0.0797
1096,-0.0199
1097,-0.0199
1098,-0.0398
1099,-0.1395
1100,-0.1395
1101,-0.0996
1102,-0.0398
1103,-0.0199
1104,-0.0199
1105,0.0598
1106,0.0199
1107,0.0000
1108,-0.0199
1109,-0.0199
1110,0.0598
1111,0.0797
1112,0.0996
1113,0.0398
1114,-0.0199
1115,0.0398
1116,0.0598
1117,0.0398
1118,-0.0199
1119,-0.0797
1120,-0.0199
1121,-0.0199
1122,0.0797
1123,0.0996
1124,0.0199
1125,-0.0398
1126,-0.0398
1127,-0.1793
1128,-0.2391
1129,-0.2590
1130,-0.1793
1131,-0.1195
1132,-0.0996
1133,-0.0398
1134,0.0000
1135,0.0797
1136,0.0797
1137,0.0199
1138,0.0398
1139,0.0797
1140,0.0598
1141,0.1992
1142,0.2391
1143,0.0797
1144,0.1195
1145,0.0000
1146,-0.1195
1147,-0.1195
1148,-0.0598
1149,-0.0398
1150,-0.0996
1151,-0.1195
1152,-0.1395
1153,-0.1793
1154,-0.2191
1155,-0.1195
1156,0.0000
1157,0.1594
1158,0.1594
1159,0.1395
1160,0.1195
1161,0.0199
1162,0.0598
1163,-0.0398
1164,-0.0598
1165,0.0000
1166,0.0199
1167,0.0199
1168,-0.0199
1169,-0.0199
1170,-0.0199
1171,0.0398
1172,0.2988
1173,0.3785
1174,0.3387
1175,0.2590
1176,0.1195
1177,0.0199
1178,-0.0398
1179,-0.1195
1180,-0.2191
1181,-0.2988
1182,-0.1793
1183,-0.1594
1184,-0.2391
1185,-0.1594
1186,-0.0996
1187,-0.0996
1188,0.0598
1189,0.2391
1190,0.2789
1191,0.2191
1192,0.1594
1193,-0.0598
1194,-0.1395
1195,-0.0797
1196,-0.0797
1197,0.0000
1198,0.0797
1199,0.0000
1200,-0.0598
1201,-0.1594
1202,-0.0996
1203,-0.0598
1204,0.0398
1205,0.0797
1206,-0.0797
1207,-0.1395
1208,-0.0398
1209,-0.0199
1210,-0.0797
1211,-0.0598
1212,0.0199
1213,0.0996
1214,0.0996
1215,0.0996
1216,0.0398
1217,0.0199
1218,-0.0797
1219,-0.1395
1220,-0.1793
1221,-0.0398
1222,0.0598
1223,0.0996
1224,0.1594
1225,0.0996
1226,0.0797
1227,0.0199
1228,0.0598
1229,0.0598
1230,0.2391
1231,0.2590
1232,0.0996
1233,-0.0398
1234,-0.0199
1235,0.0598
1236,0.1195
1237,0.0996
1238,0.0398
1239,-0.0398
1240,0.0996
1241,0.0398
1242,0.0598
1243,-0.0199
1244,-0.0598
1245,-0.1594
1246,-0.3188
1247,-0.3188
1248,-0.0598
1249,0.1992
1250,0.1793
1251,0.0797
1252,0.0000
1253,-0.1992
1254,-0.2789
1255,-0.2988
1256,-0.2191
1257,-0.0797
1258,0.0000
1259,-0.0199
1260,0.1594
1261,0.2988
1262,0.2789
1263,0.1992
1264,0.0996
1265,0.0398
1266,0.0598
1267,-0.0598
1268,-0.0598
1269,-0.2191
1270,-0.1594
1271,-0.1395
1272,-0.1395
1273,-0.1594
1274,0.0000
1275,0.2590
1276,0.5180
1277,0.6773
1278,0.5777
1279,0.3984
1280,0.1793
1281,-0.1195
1282,-0.3586
1283,-0.5578
1284,-0.4582
1285,-0.2789
1286,-0.2191
1287,-0.2191
1288,-0.1195
1289,-0.0398
1290,0.0199
1291,0.0398
1292,0.0398
1293,0.0797
1294,-0.0199
1295,0.0199
1296,0.0398
1297,0.1395
1298,0.0996
1299,0.0199
1300,-0.0797
1301,-0.1793
1302,-0.1594
1303,-0.1594
1304,-0.0996
1305,0.0199
1306,0.1793
1307,0.2590
1308,0.3188
1309,0.3387
1310,0.3188
1311,0.1395
1312,-0.0598
1313,-0.1594
1314,-0.2988
1315,-0.2988
1316,-0.2988
1317,-0.2191
1318,-0.1793
1319,-0.0598
1320,-0.0598
1321,-0.0598
1322,0.0398
1323,0.1395
1324,0.2391
1325,0.3188
1326,0.3785
1327,0.3785
1328,0.2191
1329,0.0996
1330,0.0000
1331,-0.1195
1332,-0.1395
1333,-0.2391
1334,-0.0996
1335,0.1594
1336,0.2590
1337,0.1793
1338,0.0199
1339,-0.1195
1340,-0.2191
1341,-0.1992
1342,-0.1395
1343,-0.2391
1344,-0.1793
1345,-0.1594
1346,-0.1395
1347,-0.1195
1348,-0.1395
1349,-0.1395
1350,-0.0598
1351,0.0000
1352,-0.0199
1353,-0.0199
1354,-0.0598
1355,-0.0398
1356,0.0398
1357,0.1395
1358,0.0797
1359,0.0598
1360,0.0598
1361,0.0598
1362,0.0398
1363,0.1793
1364,0.1793
1365,0.1793
1366,0.2391
1367,0.2590
1368,0.1395
1369,0.0398
1370,0.1793
1371,0.1195
1372,0.0598
1373,0.0598
1374,0.0199
1375,0.0598
1376,-0.0199
1377,0.0000
1378,0.0398
1379,0.1195
1380,0.2391
1381,0.2391
1382,0.2191
1383,0.1793
1384,0.1793
1385,0.1195
1386,0.1992
1387,0.1992
1388,0.1793
1389,0.1594
1390,0.1195
1391,0.0797
1392,0.0797
1393,0.0996
1394,0.1793
1395,0.3188
1396,0.3387
1397,0.2789
1398,0.0996
1399,0.0199
1400,-0.1195
1401,-0.0199
1402,0.0598
1403,0.0000
1404,0.0199
1405,-0.0199
1406,-0.0598
1407,-0.0996
1408,-0.0199
1409,0.1195
1410,0.2789
1411,0.3387
1412,0.2789
1413,0.2191
1414,0.1594
1415,0.0797
1416,-0.0996
1417,-0.1793
1418,-0.3586
1419,-0.5777
1420,-0.6375
1421,-0.5180
1422,-0.3586
1423,-0.2191
1424,-0.0199
1425,0.0996
1426,0.1594
1427,0.2391
1428,0.1992
1429,0.1992
1430,0.0996
1431,0.0598
1432,0.0797
1433,0.0797
1434,-0.0398
1435,-0.0797
1436,-0.0598
1437,-0.1395
1438,-0.1992
1439,-0.2191
1440,-0.2590
1441,-0.0598
1442,0.1793
1443,0.3586
1444,0.4781
1445,0.6574
1446,0.3984
1447,0.1594
1448,-0.1395
1449,-0.2988
1450,-0.4383
1451,-0.4781
1452,-0.4184
1453,-0.5180
1454,-0.4582
1455,-0.2988
1456,-0.0996
1457,0.0996
1458,0.2590
1459,0.4582
1460,0.4184
1461,0.3188
1462,0.2988
1463,0.0797
1464,-0.1195
1465,-0.2789
1466,-0.3387
1467,-0.4184
1468,-0.6176
1469,-0.5977
1470,-0.4980
1471,-0.4582
1472,-0.2590
1473,-0.1594
1474,-0.0996
1475,-0.0598
1476,0.0398
1477,0.1594
1478,0.2391
1479,0.2988
1480,0.2191
1481,0.0996
1482,0.0797
1483,0.0199
1484,-0.1594
1485,-0.0797
1486,-0.0199
1487,0.0000
1488,0.0996
1489,0.1395
1490,-0.0398
1491,-0.1992
1492,-0.1195
1493,-0.1793
1494,-0.0996
1495,-0.0598
1496,0.0398
1497,0.1195
1498,0.1195
1499,-0.0199
1500,-0.0598
1501,-0.1195
1502,-0.0797
1503,0.1395
1504,0.1992
1505,0.0797
1506,-0.1395
1507,-0.4781
1508,-0.6574
1509,-0.6973
1510,-0.6773
1511,-0.4383
1512,-0.2988
1513,-0.2789
1514,-0.1594
1515,0.0000
1516,0.0000
1517,-0.0996
1518,-0.0398
1519,-0.0797
1520,-0.1395
1521,-0.1395
1522,-0.0398
1523,0.1395
1524,0.0598
1525,0.0598
1526,0.0398
1527,0.2590
1528,0.4184
1529,0.3785
1530,0.1594
1531,0.0000
1532,-0.2590
1533,-0.3785
1534,-0.2789
1535,-0.0598
1536,-0.0199
1537,-0.0996
1538,-0.2789
1539,-0.3387
1540,-0.4184
1541,-0.4582
1542,-0.3188
1543,-0.2988
1544,-0.2590
1545,-0.2191
1546,-0.1594
1547,0.0000
1548,-0.0199
1549,-0.0398
1550,0.0598
1551,0.1594
1552,0.1195
1553,0.0000
1554,-0.0199
1555,-0.0996
1556,-0.1793
1557,-0.0996
1558,-0.0996
1559,0.0398
1560,0.0398
1561,0.0199
1562,0.1395
1563,0.2590
1564,0.3984
1565,0.4781
1566,0.2988
1567,0.1793
1568,-0.2391
1569,-0.6176
1570,-0.8168
1571,-0.8965
1572,-0.9164
1573,-0.9563
1574,-0.8168
1575,-0.5777
1576,-0.4781
1577,-0.4383
1578,-0.3387
1579,-0.0996
1580,0.0598
1581,0.1195
1582,0.0996
1583,0.0598
1584,0.0000
1585,0.0996
1586,0.1992
1587,0.2191
1588,0.1395
1589,0.0797
1590,0.0598
1591,-0.0398
1592,-0.0598
1593,-0.0996
1594,-0.0996
1595,-0.0797
1596,-0.0398
1597,-0.0398
1598,-0.0797
1599,-0.0797
1600,-0.0797
1601,-0.0598
1602,0.0000
1603,0.0797
1604,0.0996
1605,0.0000
1606,0.1195
1607,0.0996
1608,-0.0398
1609,-0.1594
1610,-0.1992
1611,-0.2789
1612,-0.3586
1613,-0.3387
1614,-0.1793
1615,0.0000
1616,0.2191
1617,0.2391
1618,0.3387
1619,0.3188
1620,0.1793
1621,0.0598
1622,0.0199
1623,0.0797
1624,0.0398
1625,-0.0398
1626,-0.1395
1627,-0.1195
1628,-0.0996
1629,-0.1395
1630,-0.0598
1631,-0.1793
1632,-0.1594
1633,-0.1992
1634,-0.1793
1635,-0.0199
1636,0.2191
1637,0.3586
1638,0.2391
1639,0.1594
1640,0.0996
1641,0.1594
1642,0.2590
1643,0.2191
1644,0.1992
1645,0.0996
1646,0.0598
1647,0.0000
1648,-0.1594
1649,-0.2988
1650,-0.1793
1651,0.0598
1652,0.1793
1653,0.1594
1654,0.1594
1655,0.1793
1656,0.1395
1657,0.2391
1658,0.3984
1659,0.3188
1660,0.1594
1661,0.1395
1662,0.1992
1663,0.1992
1664,0.1793
1665,0.1195
1666,0.0598
1667,0.1992
1668,0.1793
1669,0.0000
1670,-0.1992
1671,-0.3387
1672,-0.3586
1673,-0.5180
1674,-0.4582
1675,-0.1793
1676,-0.0398
1677,0.0797
1678,-0.0398
1679,-0.1594
1680,-0.2590
1681,-0.2988
1682,-0.0996
1683,0.0000
1684,0.0398
1685,0.0598
1686,0.1594
1687,0.1195
1688,0.0996
1689,0.0398
1690,0.1195
1691,0.2988
1692,0.2789
1693,0.1594
1694,-0.0199
1695,0.0598
1696,0.0797
1697,-0.0199
1698,-0.0996
1699,0.1195
1700,0.1992
1701,0.0996
1702,0.0996
1703,0.0797
1704,0.2391
1705,0.2191
1706,0.0598
1707,0.0797
1708,-0.0598
1709,-0.0996
1710,-0.0398
1711,0.1395
1712,0.1793
1713,0.1195
1714,-0.0598
1715,-0.1195
1716,-0.1793
1717,-0.1992
1718,-0.0598
1719,0.0598
1720,0.1793
1721,0.2191
1722,0.2191
1723,0.2789
1724,0.2191
1725,0.1594
1726,0.1793
1727,0.2191
1728,0.2590
1729,0.2191
1730,0.1793
1731,-0.0398
1732,-0.2391
1733,-0.3387
1734,-0.2391
1735,-0.1793
1736,-0.1195
1737,0.1594
1738,0.3188
1739,0.1992
1740,0.2191
1741,0.0797
1742,0.0199
1743,-0.0398
1744,-0.1594
1745,-0.2789
1746,-0.2789
1747,-0.2590
1748,-0.1793
1749,-0.0797
1750,-0.0398
1751,-0.0598
1752,0.0199
1753,0.1395
1754,0.5777
1755,0.6375
1756,0.4980
1757,0.3586
1758,0.0398
1759,-0.2191
1760,-0.4184
1761,-0.5379
1762,-0.5180
1763,-0.2988
1764,-0.0996
1765,-0.0199
1766,-0.0398
1767,0.2789
1768,0.4184
1769,0.4781
1770,0.4184
1771,0.0996
1772,-0.0996
1773,-0.1793
1774,-0.2191
1775,-0.2391
1776,-0.3984
1777,-0.4980
1778,-0.6375
1779,-0.5777
1780,-0.2988
1781,-0.1594
1782,0.0398
1783,0.1594
1784,0.2988
1785,0.1195
1786,-0.0398
1787,0.0598
1788,0.0797
1789,0.1793
1790,0.2391
1791,0.0797
1792,-0.0996
1793,-0.0996
1794,0.0000
1795,0.0996
1796,0.0000
1797,0.3984
1798,0.4781
1799,0.3785
1800,0.0000
1801,-0.3188
1802,-0.4383
1803,-0.5578
1804,-0.5777
1805,-0.5379
1806,-0.4383
1807,-0.1992
1808,-0.3785
1809,-0.3785
1810,-0.2391
1811,-0.1992
1812,-0.1594
1813,-0.0398
1814,0.0398
1815,0.1992
1816,0.2988
1817,0.3586
1818,0.3586
1819,0.4582
1820,0.6176
1821,0.4184
1822,0.2391
1823,-0.0199
1824,-0.1992
1825,-0.2590
1826,-0.3188
1827,-0.3387
1828,-0.4781
1829,-0.3984
1830,-0.2391
1831,-0.0199
1832,0.0199
1833,0.1594
1834,0.4383
1835,0.5777
1836,0.4980
1837,0.2391
1838,-0.0199
1839,-0.1793
1840,-0.3387
1841,-0.2590
1842,0.0199
1843,-0.1195
1844,-0.2391
1845,-0.1594
1846,-0.1793
1847,-0.0398
1848,-0.0199
1849,0.0598
1850,0.2391
1851,0.3586
1852,0.3387
1853,0.2590
1854,0.1594
1855,0.1395
1856,0.0000
1857,-0.1793
1858,-0.2590
1859,-0.2789
1860,-0.3188
1861,-0.2191
1862,-0.2191
1863,-0.2988
1864,0.0398
1865,0.4582
1866,0.7570
1867,0.5777
1868,0.3984
1869,0.2391
1870,0.0199
1871,-0.2191
1872,-0.3785
1873,-0.2391
1874,-0.1793
1875,-0.1793
1876,-0.1195
1877,-0.1594
1878,-0.1195
1879,-0.1395
1880,-0.0199
1881,-0.0199
1882,0.0996
1883,0.2590
1884,0.2590
1885,0.3586
1886,0.4781
1887,0.3984
1888,0.2590
1889,0.0797
1890,0.0598
1891,-0.0199
1892,-0.0598
1893,0.1992
1894,0.4781
1895,0.6375
1896,0.9164
1897,0.7770
1898,0.7770
1899,0.5379
1900,0.2988
1901,0.1195
1902,-0.0199
1903,-0.0398
1904,-0.0398
1905,-0.2391
1906,-0.4781
1907,-0.7371
1908,-0.4980
1909,-0.3785
1910,-0.3984
1911,-0.4184
1912,-0.2789
1913,-0.2191
1914,-0.1594
1915,0.0996
1916,0.2590
1917,0.3387
1918,0.2988
1919,0.2988
1920,0.2789
1921,0.1195
1922,0.0598
1923,-0.0398
1924,0.0199
1925,0.0199
1926,0.0996
1927,0.2988
1928,0.4582
1929,0.5180
1930,0.5379
1931,0.3387
1932,0.1793
1933,-0.0598
1934,-0.0598
1935,0.1395
1936,0.0199
1937,-0.0797
1938,-0.0598
1939,-0.0199
1940,0.0199
1941,0.0000
1942,0.0199
1943,0.0996
1944,-0.0199
1945,-0.0598
1946,-0.1992
1947,-0.2789
1948,-0.2988
1949,-0.1395
1950,0.0199
1951,-0.0797
1952,-0.1793
1953,-0.2590
1954,-0.1992
1955,-0.1793
1956,-0.1395
1957,-0.0797
1958,0.0797
1959,0.3387
1960,0.4582
1961,0.4383
1962,0.4383
1963,0.3188
1964,0.0797
1965,-0.1395
1966,-0.3785
1967,-0.4184
1968,-0.3785
1969,-0.3188
1970,-0.1594
1971,-0.0199
1972,0.2590
1973,0.2391
1974,0.4383
1975,0.4582
1976,0.3984
1977,0.5777
1978,0.6773
1979,0.4582
1980,0.3188
1981,0.0398
1982,-0.2391
1983,-0.3188
1984,-0.3785
1985,-0.1992
1986,0.0598
1987,0.5180
1988,0.3586
1989,0.1195
1990,-0.0199
1991,-0.0598
1992,0.0199
1993,-0.0996
1994,-0.2590
1995,-0.2391
1996,-0.0797
1997,-0.1195
1998,-0.3387
1999,-0.3188
2000,-0.0797
2001,0.2391
2002,0.3984
2003,0.3387
2004,0.1594
2005,0.0996
2006,0.0598
2007,-0.1195
2008,-0.0598
2009,0.0797
2010,0.2191
2011,0.1992
2012,-0.1395
2013,-0.4184
2014,-0.4781
2015,-0.5977
2016,-0.6176
2017,-0.4980
2018,-0.4383
2019,-0.4582
2020,-0.3387
2021,-0.2191
2022,-0.2191
2023,-0.0398
2024,0.0199
2025,0.1395
2026,0.4781
2027,0.5180
2028,0.2191
2029,-0.0598
2030,0.0000
2031,-0.0199
2032,0.0996
2033,0.2789
2034,0.3984
2035,0.2789
2036,-0.1395
2037,-0.3188
2038,-0.3387
2039,-0.4582
2040,-0.4383
2041,-0.3387
2042,-0.2590
2043,-0.3188
2044,-0.2789
2045,-0.2789
2046,-0.3984
2047,-0.3785
2048,-0.1992
2049,0.2391
2050,0.5379
2051,0.6375
2052,1.0559
2053,0.7969
2054,0.4383
2055,0.0598
2056,-0.2789
2057,-0.2789
2058,-0.1992
2059,-0.2191
2060,0.1395
2061,0.1395
2062,-0.1793
2063,-0.5180
2064,-0.2988
2065,-0.1395
2066,-0.1793
2067,-0.0996
2068,-0.0199
2069,-0.2789
2070,-0.4781
2071,-0.4781
2072,-0.5977
2073,-0.4184
2074,-0.2391
2075,-0.1992
2076,0.0000
2077,0.1992
2078,0.3984
2079,0.7570
2080,0.9363
2081,0.7172
2082,0.4781
2083,0.1395
2084,-0.2789
2085,-0.4980
2086,-0.4582
2087,-0.2391
2088,-0.0398
2089,0.0996
2090,0.2191
2091,0.0398
2092,-0.0199
2093,-0.0797
2094,0.0996
2095,0.2191
2096,0.0996
2097,0.0199
2098,0.0000
2099,0.0000
2100,-0.0199
2101,-0.0996
2102,-0.1992
2103,-0.2191
2104,-0.1793
2105,-0.1992
2106,-0.0996
2107,-0.0598
2108,0.2789
2109,0.3984
2110,0.2988
2111,0.0598
2112,-0.2988
2113,-0.5777
2114,-0.3387
2115,0.0398
2116,0.1793
2117,0.1594
2118,-0.2191
2119,-0.4781
2120,-0.1395
2121,-0.1793
2122,-0.1992
2123,-0.1395
2124,-0.3984
2125,-0.5777
2126,-0.5777
2127,-0.3586
2128,-0.1793
2129,-0.0398
2130,-0.0996
2131,-0.0996
2132,-0.0398
2133,0.1594
2134,0.2590
2135,0.3984
2136,0.3188
2137,0.0000
2138,-0.1992
2139,-0.3188
2140,-0.1594
2141,-0.2988
2142,-0.3586
2143,-0.2191
2144,-0.1992
2145,-0.2988
2146,-0.3785
2147,-0.2988
2148,-0.2590
2149,-0.1992
2150,-0.1395
2151,-0.0398
2152,0.1594
2153,0.2391
2154,0.2789
2155,0.1395
2156,0.0000
2157,-0.2191
2158,-0.2191
2159,-0.0398
2160,0.0996
2161,0.0398
2162,-0.1395
2163,-0.2988
2164,-0.2988
2165,-0.1793
2166,-0.3387
2167,-0.2191
2168,-0.0598
2169,0.0398
2170,0.0398
2171,0.0000
2172,0.2391
2173,0.3188
2174,0.2191
2175,0.1992
2176,0.0996
2177,0.1594
2178,0.2391
2179,0.1793
2180,0.1793
2181,0.0000
2182,-0.1793
2183,-0.1793
2184,0.0398
2185,0.0000
2186,0.0996
2187,0.0199
2188,-0.1793
2189,-0.2391
2190,-0.4781
2191,-0.5180
2192,-0.5180
2193,-0.2789
2194,0.0000
2195,0.0996
2196,0.0598
2197,0.1395
2198,0.0199
2199,-0.1195
2200,-0.1195
2201,-0.2391
2202,0.0199
2203,0.0199
2204,0.0797
2205,0.0797
2206,0.1195
2207,0.6574
2208,1.3148
2209,1.3148
2210,1.0758
2211,0.6773
2212,0.1793
2213,-0.3586
2214,-0.6375
2215,-0.5977
2216,-0.7172
2217,-0.6773
2218,-0.7172
2219,-0.3188
2220,0.1992
2221,0.1395
2222,0.0199
2223,0.1395
2224,0.1395
2225,0.1793
2226,0.3984
2227,0.6574
2228,0.8566
2229,0.7371
2230,0.4781
2231,0.2191
2232,0.3785
2233,0.2191
2234,0.1793
2235,0.1793
2236,0.0996
2237,-0.2391
2238,-0.5977
2239,-0.4582
2240,-0.0797
2241,0.1992
2242,0.0199
2243,0.0000
2244,0.0996
2245,-0.0797
2246,-0.0797
2247,-0.1992
2248,-0.3387
2249,-0.4383
2250,-0.6574
2251,-0.5977
2252,-0.5777
2253,-0.4184
2254,-0.1992
2255,0.3785
2256,0.4980
2257,0.4184
2258,0.1793
2259,0.0000
2260,0.1195
2261,0.4383
2262,0.3785
2263,0.1793
2264,-0.0598
2265,-0.2391
2266,-0.4383
2267,-0.6973
2268,-0.8367
2269,-0.7770
2270,-0.7172
2271,-0.7172
2272,-0.5578
2273,-0.4980
2274,-0.3984
2275,-0.0598
2276,0.0199
2277,0.1992
2278,0.3785
2279,0.4383
2280,0.2988
2281,0.1992
2282,0.1992
2283,-0.1195
2284,-0.3387
2285,-0.4781
2286,-0.5578
2287,-0.6973
2288,-0.3984
2289,-0.0598
2290,0.0797
2291,0.2391
2292,0.2391
2293,0.2590
2294,0.3387
2295,0.1594
2296,0.0996
2297,0.1395
2298,0.1992
2299,0.3586
2300,0.5180
2301,0.4383
2302,0.2789
2303,0.0996
2304,0.0996
2305,0.1793
2306,0.2191
2307,0.2191
2308,0.1195
2309,0.0797
2310,0.1594
2311,-0.1793
2312,-0.1992
2313,-0.0797
2314,0.0199
2315,0.1594
2316,0.2590
2317,0.1793
2318,0.1594
2319,0.3387
2320,0.6176
2321,0.3586
2322,0.0797
2323,-0.2988
2324,-0.6176
2325,-0.8367
2326,-0.8766
2327,-0.4980
2328,0.0000
2329,0.0199
2330,0.1195
2331,0.2789
2332,0.2590
2333,0.2191
2334,0.3188
2335,0.2391
2336,0.1195
2337,-0.1395
2338,-0.0996
2339,-0.2590
2340,-0.3785
2341,-0.5777
2342,-0.5379
2343,-0.4184
2344,-0.2391
2345,-0.1594
2346,0.0199
2347,0.3586
2348,0.2789
2349,0.2988
2350,0.1395
2351,-0.0996
2352,-0.2590
2353,-0.5180
2354,-0.6375
2355,-0.6973
2356,-0.5379
2357,-0.2191
2358,0.0996
2359,0.2391
2360,0.3984
2361,0.3586
2362,0.3188
2363,0.8566
2364,1.0559
2365,0.7770
2366,0.3984
2367,-0.2391
2368,-0.7969
2369,-0.9164
2370,-0.8367
2371,-0.6375
2372,-0.5379
2373,-0.4383
2374,-0.3188
2375,-0.2391
2376,-0.0598
2377,0.2391
2378,0.2391
2379,0.6176
2380,0.8367
2381,0.6773
2382,0.5977
2383,0.2988
2384,0.0598
2385,-0.1793
2386,-0.3785
2387,-0.5379
2388,-0.4781
2389,-0.4582
2390,-0.3188
2391,-0.0398
2392,0.0996
2393,-0.1395
2394,-0.2988
2395,-0.1992
2396,0.0000
2397,0.0996
2398,0.1594
2399,0.0797
2400,-0.0199
2401,-0.1195
2402,0.0199
2403,0.1195
2404,0.1793
2405,0.0797
2406,0.3586
2407,0.7371
2408,0.8965
2409,0.9164
2410,0.8168
2411,0.6574
2412,0.5379
2413,0.3188
2414,0.1793
2415,0.0199
2416,-0.1793
2417,-0.2590
2418,-0.3586
2419,-0.3387
2420,-0.1992
2421,0.1793
2422,0.2590
2423,0.2988
2424,0.1992
2425,0.0996
2426,0.3785
2427,0.4781
2428,0.3785
2429,0.1395
2430,-0.0996
2431,-0.3188
2432,-0.5977
2433,-0.5379
2434,-0.5180
2435,-0.2590
2436,0.0199
2437,0.1395
2438,0.2988
2439,0.1992
2440,-0.0598
2441,-0.0797
2442,-0.1992
2443,-0.3586
2444,-0.2391
2445,-0.1195
2446,-0.0797
2447,-0.1594
2448,-0.2191
2449,-0.1594
2450,-0.0996
2451,0.0398
2452,0.0797
2453,0.0996
2454,0.0797
2455,0.1395
2456,0.3188
2457,0.2789
2458,0.1992
2459,0.2391
2460,0.3586
2461,0.0199
2462,-0.1793
2463,-0.0996
2464,0.1793
2465,0.5777
2466,0.5777
2467,0.4582
2468,0.2191
2469,-0.0797
2470,-0.6574
2471,-1.0758
2472,-1.1156
2473,-1.0758
2474,-0.7969
2475,-0.4582
2476,-0.2590
2477,-0.2391
2478,-0.1395
2479,-0.0199
2480,-0.0797
2481,-0.1195
2482,-0.0996
2483,-0.1395
2484,-0.1594
2485,-0.1395
2486,-0.1195
2487,-0.0598
2488,0.1395
2489,0.2590
2490,0.4582
2491,0.4383
2492,0.2789
2493,0.0398
2494,-0.0996
2495,-0.3984
2496,-0.2988
2497,-0.0996
2498,0.0398
2499,0.1594
2500,-0.1395
2501,-0.1195
2502,-0.0598
2503,-0.0797
2504,-0.1793
2505,-0.1992
2506,-0.1992
2507,-0.1594
2508,-0.0398
2509,0.3785
2510,0.3984
2511,0.3387
2512,0.1793
2513,-0.1395
2514,-0.4184
2515,-0.3785
2516,-0.2789
2517,-0.1395
2518,0.1395
2519,0.3586
2520,0.2789
2521,0.1594
2522,0.2789
2523,0.2590
2524,0.2391
2525,0.1195
2526,0.1594
2527,0.1195
2528,0.1793
2529,0.0598
2530,0.0199
2531,-0.2590
2532,-0.4582
2533,-0.5977
2534,-0.7770
2535,-0.7371
2536,-0.6176
2537,-0.2590
2538,0.2191
2539,0.3586
2540,0.3387
2541,0.2789
2542,0.3785
2543,0.4184
2544,0.3188
2545,0.3586
2546,0.3387
2547,0.0398
2548,-0.0398
2549,0.0199
2550,0.0996
2551,-0.0797
2552,-0.0598
2553,0.0000
2554,-0.1195
2555,-0.2191
2556,-0.1594
2557,-0.1395
2558,-0.0398
2559,0.1594
2560,0.4582
2561,0.5379
2562,0.4781
2563,0.3387
2564,0.0996
2565,-0.0797
2566,-0.2988
2567,-0.5379
2568,-0.9563
2569,-0.8766
2570,-0.4980
2571,-0.4980
2572,-0.4980
2573,-0.2391
2574,0.1594
2575,0.2391
2576,0.1793
2577,0.1395
2578,0.2590
2579,0.2191
2580,0.2191
2581,0.1594
2582,0.1195
2583,0.0398
2584,-0.1992
2585,-0.3387
2586,-0.3785
2587,-0.1594
2588,0.0000
2589,0.0398
2590,0.3586
2591,0.3586
2592,0.3387
2593,0.2391
2594,0.1395
2595,0.0199
2596,0.0797
2597,0.0797
2598,0.0797
2599,-0.1395
2600,-0.1195
2601,0.2391
2602,0.1395
2603,0.0000
2604,-0.1992
2605,-0.3586
2606,-0.4980
2607,-0.6176
2608,-0.6574
2609,-0.6176
2610,-0.4980
2611,-0.2789
2612,0.0797
2613,0.3586
2614,0.3785
2615,0.4184
2616,0.3984
2617,0.2789
2618,-0.0398
2619,-0.1992
2620,-0.2391
2621,-0.2191
2622,-0.2391
2623,-0.2191
2624,-0.2191
2625,-0.1395
2626,-0.0996
2627,0.0000
2628,0.0398
2629,0.2590
2630,0.3785
2631,0.3387
2632,0.2789
2633,0.3586
2634,0.2391
2635,0.0996
2636,-0.2191
2637,-0.1395
2638,0.0996
2639,0.0996
2640,0.2590
2641,0.6176
2642,1.0758
2643,1.2152
2644,0.9961
2645,0.4582
2646,-0.0797
2647,-0.5379
2648,-0.9563
2649,-0.9961
2650,-0.7969
2651,-0.8766
2652,-0.8367
2653,-0.7371
2654,-0.5977
2655,-0.3387
2656,-0.1395
2657,-0.0199
2658,-0.0398
2659,0.0598
2660,0.1195
2661,0.1793
2662,0.2590
2663,0.2590
2664,0.2590
2665,0.2789
2666,0.1992
2667,0.0797
2668,0.0000
2669,0.0000
2670,-0.0996
2671,-0.0598
2672,0.1195
2673,0.1195
2674,0.2789
2675,0.3586
2676,0.1793
2677,0.0797
2678,-0.1195
2679,-0.2391
2680,-0.2391
2681,-0.1195
2682,-0.0797
2683,-0.0398
2684,0.1395
2685,0.1594
2686,0.2590
2687,0.1395
2688,0.0598
2689,0.0797
2690,0.2590
2691,0.3387
2692,0.3586
2693,0.5777
2694,0.5578
2695,0.4980
2696,0.1395
2697,-0.2590
2698,-0.4184
2699,-0.4980
2700,-0.5777
2701,-0.4781
2702,-0.3188
2703,-0.2988
2704,-0.3188
2705,-0.2789
2706,-0.3785
2707,-0.1793
2708,-0.0398
2709,0.0199
2710,0.2191
2711,0.1793
2712,0.2988
2713,0.4383
2714,0.5777
2715,0.5777
2716,0.4980
2717,0.1594
2718,-0.0598
2719,-0.2191
2720,-0.1195
2721,-0.2789
2722,-0.4383
2723,-0.3785
2724,-0.4383
2725,-0.4781
2726,-0.4184
2727,-0.1594
2728,-0.1594
2729,-0.0398
2730,0.1793
2731,0.2590
2732,0.4184
2733,0.3586
2734,0.1992
2735,0.1992
2736,0.2191
2737,0.2789
2738,0.1594
2739,0.2391
2740,0.4582
2741,0.3188
2742,0.0598
2743,-0.2391
2744,-0.3785
2745,-0.3586
2746,-0.7570
2747,-0.7969
2748,-0.5578
2749,-0.3188
2750,-0.0996
2751,0.0996
2752,0.1594
2753,0.2191
2754,0.0797
2755,0.1793
2756,0.3984
2757,0.5180
2758,0.6375
2759,0.5180
2760,0.3785
2761,0.0398
2762,-0.1992
2763,-0.2789
2764,-0.4781
2765,-0.3188
2766,-0.0398
2767,-0.1395
2768,-0.0996
2769,-0.0797
2770,0.0000
2771,0.0000
2772,0.0000
2773,0.0598
2774,0.2988
2775,0.6176
2776,0.7969
2777,0.7770
2778,0.5977
2779,0.4781
2780,-0.0598
2781,-0.6176
2782,-0.7770
2783,-0.7969
2784,-0.5777
2785,-0.0797
2786,-0.0199
2787,0.0199
2788,-0.0398
2789,-0.0598
2790,0.0199
2791,0.0199
2792,0.0996
2793,0.2789
2794,0.5578
2795,0.7371
2796,0.6574
2797,0.4781
2798,0.3984
2799,0.1992
2800,-0.1395
2801,-0.2789
2802,0.0000
2803,0.0398
2804,-0.1195
2805,0.0199
2806,-0.0598
2807,-0.1395
2808,-0.1594
2809,-0.1793
2810,-0.0996
2811,-0.2391
2812,-0.1594
2813,-0.0199
2814,0.0996
2815,0.2191
2816,0.4582
2817,0.4582
2818,0.2988
2819,-0.1395
2820,-0.4383
2821,-0.5977
2822,-0.6773
2823,-0.9164
2824,-0.9762
2825,-0.8566
2826,-0.4781
2827,-0.2590
2828,-0.0598
2829,0.1195
2830,0.4184
2831,0.6574
2832,0.7371
2833,0.6973
2834,0.5180
2835,0.0797
2836,-0.2590
2837,-0.5379
2838,-0.6973
2839,-0.8965
2840,-0.8367
2841,-0.7770
2842,-0.5578
2843,-0.3984
2844,-0.0398
2845,0.2191
2846,0.3785
2847,0.4980
2848,0.3188
2849,0.0797
2850,-0.0199
2851,0.0000
2852,-0.1594
2853,-0.0996
2854,0.0199
2855,0.0398
2856,-0.1594
2857,-0.1793
2858,-0.2191
2859,-0.0996
2860,-0.0797
2861,-0.1195
2862,-0.0598
2863,0.0797
2864,0.3387
2865,0.2988
2866,0.2590
2867,0.0598
2868,-0.0199
2869,-0.0598
2870,-0.0398
2871,-0.0797
2872,-0.0199
2873,0.1195
2874,0.6375
2875,0.7969
2876,0.5777
2877,0.3188
2878,0.0598
2879,-0.1992
2880,-0.4184
2881,-0.7172
2882,-0.4184
2883,-0.3586
2884,-0.2590
2885,-0.0598
2886,0.1594
2887,0.4383
2888,0.6773
2889,0.7371
2890,0.5977
2891,0.3188
2892,0.0398
2893,-0.2590
2894,-0.3984
2895,-0.0598
2896,-0.0398
2897,0.3188
2898,0.4582
2899,0.3785
2900,0.0398
2901,-0.2391
2902,-0.5578
2903,-0.6375
2904,-0.5777
2905,-0.4383
2906,-0.1793
2907,0.0199
2908,0.0598
2909,0.1195
2910,0.0797
2911,0.0398
2912,-0.0398
2913,-0.2391
2914,0.0199
2915,0.1992
2916,0.3586
2917,0.5578
2918,0.6176
2919,0.7770
2920,0.8367
2921,0.6375
2922,0.3188
2923,-0.1195
2924,-0.2590
2925,-0.2988
2926,-0.3387
2927,-0.3586
2928,-0.2391
2929,-0.3586
2930,-0.3984
2931,-0.2391
2932,-0.0797
2933,-0.1594
2934,-0.3188
2935,-0.3586
2936,-0.1594
2937,0.0598
2938,0.1395
2939,0.1195
2940,0.0199
2941,0.0000
2942,0.1195
2943,-0.0398
2944,-0.0797
2945,0.0199
2946,0.0000
2947,-0.0797
2948,0.0598
2949,0.1594
2950,0.3188
2951,0.4781
2952,0.5180
2953,0.5379
2954,0.2789
2955,0.0398
2956,0.1793
2957,0.0598
2958,-0.4184
2959,-0.6176
2960,-0.4184
2961,-0.4781
2962,-0.6176
2963,-0.6574
2964,-0.3188
2965,-0.0199
2966,0.0199
2967,0.0000
2968,0.0398
2969,0.0797
2970,0.2191
2971,0.4184
2972,0.5180
2973,0.4781
2974,0.3387
2975,0.3387
2976,0.0398
2977,-0.1992
2978,-0.3586
2979,-0.3586
2980,-0.4781
2981,-0.4184
2982,-0.0996
2983,0.0797
2984,0.3387
2985,0.4184
2986,0.5379
2987,0.7570
2988,0.6574
2989,0.6176
2990,0.5379
2991,0.1395
2992,-0.2789
2993,-0.6574
2994,-0.7969
2995,-1.1355
2996,-1.4145
2997,-1.0160
2998,-0.7570
2999,-0.6176
3000,-0.4781
3001,-0.2988
3002,-0.0996
3003,0.1594
3004,0.3984
3005,0.5777
3006,0.6176
3007,0.4383
3008,0.0598
3009,-0.2391
3010,-0.4781
3011,-0.5379
3012,-0.2789
3013,-0.0398
3014,0.0996
3015,0.1195
3016,0.1793
3017,0.1793
3018,0.0996
3019,-0.0598
3020,-0.0797
3021,0.5379
3022,0.9961
3023,0.9363
3024,0.6773
3025,0.3984
3026,-0.0797
3027,-0.7172
3028,-1.1555
3029,-1.2551
3030,-0.8566
3031,-0.5379
3032,-0.4980
3033,-0.5180
3034,-0.3785
3035,-0.2590
3036,-0.1992
3037,-0.2988
3038,-0.2988
3039,-0.3387
3040,-0.1992
3041,-0.0598
3042,0.1395
3043,0.3188
3044,0.5578
3045,0.7172
3046,0.5777
3047,0.2789
3048,0.0797
3049,0.1395
3050,0.1992
3051,0.0996
3052,0.2590
3053,0.3785
3054,0.6375
3055,0.6176
3056,0.5180
3057,0.3188
3058,0.0398
3059,-0.4980
3060,-0.8766
3061,-1.1355
3062,-1.0359
3063,-0.5578
3064,-0.2789
3065,0.0000
3066,0.1594
3067,0.1992
3068,0.2590
3069,0.2391
3070,0.3785
3071,0.2988
3072,0.1594
3073,0.1395
3074,0.1793
3075,0.3984
3076,0.2988
3077,0.2789
3078,0.3586
3079,0.4383
3080,0.4980
3081,0.3586
3082,0.1793
3083,0.1594
3084,0.0797
3085,-0.1395
3086,-0.6176
3087,-0.5578
3088,-0.1992
3089,-0.1793
3090,-0.0199
3091,-0.0199
3092,-0.1395
3093,-0.1395
3094,0.0598
3095,0.2789
3096,0.4980
3097,0.6176
3098,0.7172
3099,0.5578
3100,0.1992
3101,-0.0797
3102,-0.4184
3103,-0.5180
3104,-0.5180
3105,-0.4582
3106,-0.3785
3107,-0.1793
3108,0.1594
3109,0.5180
3110,0.4383
3111,0.3984
3112,0.4980
3113,0.1195
3114,-0.1594
3115,-0.2391
3116,-0.2391
3117,-0.1992
3118,0.2590
3119,0.2391
3120,0.0598
3121,-0.0797
3122,-0.3785
3123,-0.6574
3124,-0.7371
3125,-0.4781
3126,-0.2391
3127,0.1395
3128,0.7172
3129,1.1156
3130,1.1555
3131,0.9961
3132,0.5977
3133,0.1594
3134,-0.2191
3135,-0.3785
3136,-0.4383
3137,-0.2590
3138,-0.0797
3139,-0.0199
3140,0.1594
3141,0.1195
3142,-0.0598
3143,-0.2590
3144,-0.4980
3145,-0.2191
3146,0.1992
3147,0.5180
3148,0.9164
3149,1.0160
3150,1.0359
3151,0.5379
3152,0.1594
3153,-0.4383
3154,-0.6574
3155,-0.5379
3156,-0.4980
3157,-0.3785
3158,-0.1793
3159,-0.2590
3160,-0.1992
3161,-0.0398
3162,-0.0398
3163,-0.1395
3164,-0.0996
3165,-0.1395
3166,0.0398
3167,0.0598
3168,0.1594
3169,0.2391
3170,0.1395
3171,0.0199
3172,-0.0598
3173,-0.0398
3174,0.0996
3175,0.2988
3176,0.3984
3177,0.3984
3178,0.2590
3179,0.2191
3180,0.1395
3181,0.1793
3182,0.0797
3183,0.0199
3184,0.0996
3185,-0.0598
3186,-0.1594
3187,-0.0598
3188,-0.2391
3189,-0.1594
3190,-0.0598
3191,-0.0996
3192,-0.0598
3193,-0.0398
3194,0.0598
3195,0.1395
3196,0.1793
3197,0.0996
3198,0.1195
3199,-0.0398
3200,-0.2191
3201,-0.8965
3202,-0.8168
3203,-0.5180
3204,-0.4383
3205,-0.3785
3206,-0.2988
3207,-0.1992
3208,-0.1195
3209,0.0598
3210,0.0996
3211,-0.0199
3212,0.1594
3213,0.2191
3214,-0.0598
3215,-0.0598
3216,-0.1594
3217,-0.1195
3218,-0.4184
3219,-0.2391
3220,-0.0797
3221,0.0598
3222,0.0000
3223,-0.0797
3224,0.0199
3225,0.0598
3226,0.1195
3227,0.0398
3228,-0.2590
3229,-0.3785
3230,-0.0398
3231,-0.1195
3232,-0.1395
3233,-0.0598
3234,-0.0398
3235,0.4383
3236,0.6375
3237,0.4980
3238,0.2988
3239,-0.1992
3240,-0.4781
3241,-0.6574
3242,-0.2391
3243,0.2191
3244,0.2789
3245,0.3785
3246,0.1992
3247,-0.1793
3248,-0.3984
3249,-0.4980
3250,-0.4383
3251,-0.0598
3252,-0.0398
3253,-0.0797
3254,0.0797
3255,0.0797
3256,-0.1793
3257,-0.2590
3258,-0.2590
3259,-0.3984
3260,-0.4582
3261,-0.2789
3262,-0.1594
3263,0.0398
3264,0.2789
3265,0.4582
3266,0.6176
3267,0.6375
3268,0.4781
3269,0.5578
3270,0.6375
3271,0.4980
3272,0.1594
3273,-0.1395
3274,-0.0996
3275,-0.4184
3276,-0.6973
3277,-0.7371
3278,-0.3984
3279,-0.1395
3280,0.1793
3281,0.3984
3282,0.5379
3283,0.4781
3284,0.2789
3285,-0.0598
3286,-0.3387
3287,-0.7570
3288,-0.8168
3289,-0.8965
3290,-0.6574
3291,-0.4582
3292,-0.2590
3293,-0.0797
3294,0.1594
3295,0.3387
3296,0.4980
3297,0.4383
3298,0.3785
3299,0.1793
3300,0.0199
3301,-0.1395
3302,-0.2191
3303,-0.0996
3304,-0.0598
3305,-0.2391
3306,-0.2191
3307,-0.0199
3308,0.1992
3309,0.3188
3310,0.2590
3311,0.2590
3312,0.0797
3313,-0.0996
3314,-0.1594
3315,-0.3188
3316,-0.2391
3317,0.1793
3318,0.3387
3319,0.1992
3320,0.1395
3321,0.1793
3322,0.1793
3323,0.2590
3324,0.4184
3325,0.4582
3326,0.3984
3327,0.1594
3328,0.1395
3329,-0.1395
3330,-0.4980
3331,-0.6176
3332,-0.4184
3333,-0.2988
3334,-0.1793
3335,-0.4184
3336,-0.2988
3337,-0.1395
3338,-0.0797
3339,0.2191
3340,0.4184
3341,0.2988
3342,0.2590
3343,0.0996
3344,-0.1395
3345,-0.1992
3346,-0.1793
3347,0.0996
3348,0.4383
3349,0.5379
3350,0.5379
3351,0.4383
3352,0.1395
3353,-0.0398
3354,0.0398
3355,-0.0797
3356,-0.1793
3357,0.1395
3358,0.1992
3359,0.0199
3360,-0.1195
3361,-0.2988
3362,-0.2590
3363,-0.1195
3364,-0.0996
3365,-0.4582
3366,-0.3387
3367,-0.2191
3368,-0.2988
3369,-0.0199
3370,0.0199
3371,-0.1793
3372,-0.0996
3373,-0.0199
3374,0.0199
3375,-0.0797
3376,-0.2391
3377,-0.2191
3378,-0.2590
3379,-0.1793
3380,-0.1594
3381,0.1992
3382,0.3586
3383,0.2391
3384,0.3188
3385,0.3387
3386,-0.0398
3387,0.0000
3388,0.1594
3389,-0.1395
3390,-0.0598
3391,-0.0398
3392,0.1195
3393,0.0598
3394,-0.0199
3395,-0.2988
3396,-0.4383
3397,-0.6773
3398,-0.5578
3399,-0.4781
3400,-0.5379
3401,-0.2590
3402,0.1195
3403,0.4184
3404,0.4781
3405,0.4582
3406,0.2391
3407,-0.0598
3408,-0.1395
3409,-0.2590
3410,-0.1195
3411,-0.2590
3412,-0.3188
3413,-0.5180
3414,-0.4383
3415,-0.3188
3416,-0.2590
3417,-0.1594
3418,0.0797
3419,0.2590
3420,0.4980
3421,0.5180
3422,0.3586
3423,-0.1594
3424,-0.3785
3425,-0.3387
3426,-0.1793
3427,-0.3586
3428,0.1195
3429,0.3188
3430,0.4383
3431,0.3188
3432,0.3387
3433,0.2789
3434,0.1195
3435,-0.0996
3436,-0.2191
3437,-0.4980
3438,-0.4184
3439,-0.1195
3440,-0.0598
3441,-0.0398
3442,-0.1992
3443,-0.3984
3444,-0.3785
3445,-0.3188
3446,-0.2988
3447,-0.0996
3448,-0.0398
3449,0.1594
3450,0.3188
3451,0.3586
3452,0.4184
3453,0.4781
3454,0.3188
3455,0.0199
3456,-0.2590
3457,-0.4781
3458,-0.8367
3459,-0.9164
3460,-0.1793
3461,0.0398
3462,0.2191
3463,0.4184
3464,0.5379
3465,0.5180
3466,0.4383
3467,0.3586
3468,0.3188
3469,0.3984
3470,0.2789
3471,0.1992
3472,0.1992
3473,0.1793
3474,0.1992
3475,-0.0398
3476,-0.2789
3477,-0.4184
3478,-0.3387
3479,-0.0797
3480,-0.2988
3481,-0.2191
3482,0.0398
3483,0.1594
3484,0.3586
3485,0.6574
3486,0.7770
3487,0.8168
3488,0.5977
3489,0.1992
3490,-0.3188
3491,-0.4980
3492,-0.4582
3493,-0.8566
3494,-0.7969
3495,-0.4184
3496,-0.1594
3497,0.0000
3498,0.0000
3499,0.1195
3500,0.0398
3501,0.0398
3502,-0.1195
3503,-0.0996
3504,-0.2391
3505,-0.3188
3506,-0.1594
3507,0.0797
3508,-0.1195
3509,-0.3984
3510,-0.6973
3511,-0.4582
3512,-0.1395
3513,0.1594
3514,0.4184
3515,0.8965
3516,1.1754
3517,1.2352
3518,1.0758
3519,0.9363
3520,0.5180
3521,0.0797
3522,-0.1395
3523,-0.4980
3524,-0.6176
3525,-0.5578
3526,-0.2391
3527,-0.2789
3528,-0.4980
3529,-0.7570
3530,-0.3387
3531,-0.3387
3532,-0.2590
3533,0.3586
3534,0.6773
3535,0.9363
3536,0.7969
3537,0.4781
3538,-0.0598
3539,-0.6574
3540,-1.1156
3541,-0.8965
3542,-0.7570
3543,-0.4582
3544,-0.2988
3545,-0.1594
3546,-0.0996
3547,0.0598
3548,0.0797
3549,0.0797
3550,0.1195
3551,0.1594
3552,0.3984
3553,0.5379
3554,0.5777
3555,0.4184
3556,0.3984
3557,0.6176
3558,0.6574
3559,0.5578
3560,0.3785
3561,-0.1793
3562,-0.5180
3563,-0.6773
3564,-0.7371
3565,-0.6375
3566,-0.0598
3567,0.3785
3568,0.7371
3569,0.7371
3570,0.3785
3571,-0.0996
3572,-0.4980
3573,-0.6375
3574,-0.3785
3575,-0.1793
3576,-0.1594
3577,0.0598
3578,0.2391
3579,0.4184
3580,0.7371
3581,0.8367
3582,0.6375
3583,0.3984
3584,0.1395
3585,-0.2590
3586,-0.3188
3587,-0.0797
3588,-0.1793
3589,-0.4781
3590,-0.4781
3591,-0.2988
3592,0.1992
3593,0.2191
3594,0.2191
3595,0.6176
3596,0.6773
3597,0.4781
3598,-0.0598
3599,-0.3586
3600,-0.4582
3601,-0.2988
3602,-0.0199
3603,0.0797
3604,0.0199
3605,0.1594
3606,0.1195
3607,0.1195
3608,0.0000
3609,0.4383
3610,0.6773
3611,0.4582
3612,0.0797
3613,-0.0797
3614,-0.2789
3615,-0.5578
3616,-0.6375
3617,-0.3785
3618,-0.6176
3619,-0.3785
3620,-0.4980
3621,0.0797
3622,0.5578
3623,0.5578
3624,0.5777
3625,0.4184
3626,0.1992
3627,-0.1793
3628,-0.4582
3629,-0.5977
3630,-0.6375
3631,-0.3785
3632,-0.3586
3633,-0.3984
3634,-0.6375
3635,-0.3188
3636,-0.0797
3637,0.0000
3638,0.1195
3639,0.2191
3640,0.3586
3641,0.1992
3642,0.2789
3643,0.3188
3644,0.1793
3645,-0.0797
3646,-0.3984
3647,-0.6773
3648,-0.4781
3649,-0.1195
3650,-0.1793
3651,-0.3586
3652,-0.4383
3653,-0.4582
3654,0.0199
3655,0.1793
3656,0.1395
3657,-0.0199
3658,0.2590
3659,0.4781
3660,0.4383
3661,0.3785
3662,0.0598
3663,-0.2191
3664,-0.3984
3665,-0.3785
3666,-0.1594
3667,0.0199
3668,-0.0996
3669,-0.0199
3670,0.1992
3671,0.1793
3672,0.2391
3673,0.1793
3674,0.3586
3675,0.5578
3676,0.4383
3677,0.7172
3678,1.0559
3679,0.5777
3680,0.1195
3681,-0.0199
3682,-0.1793
3683,-0.2988
3684,-0.2988
3685,-0.3586
3686,-0.1195
3687,-0.0598
3688,0.2191
3689,0.4184
3690,0.3387
3691,0.1992
3692,0.4383
3693,0.4184
3694,0.1195
3695,0.0996
3696,0.3785
3697,0.3785
3698,0.3188
3699,0.1395
3700,0.1395
3701,-0.0797
3702,-0.3188
3703,-0.4781
3704,-0.7371
3705,-0.2391
3706,0.1195
3707,0.4383
3708,0.6973
3709,0.9762
3710,0.8766
3711,0.6773
3712,0.3785
3713,0.1793
3714,-0.2590
3715,-0.7172
3716,-0.8168
3717,-0.8367
3718,-0.9363
3719,-0.7371
3720,-0.5578
3721,-0.4184
3722,-0.3188
3723,-0.1594
3724,-0.0598
3725,0.2391
3726,0.3586
3727,0.5180
3728,0.5977
3729,0.7172
3730,0.5777
3731,0.2590
3732,0.1594
3733,0.0996
3734,0.0598
3735,-0.2391
3736,-0.5777
3737,-0.7770
3738,-0.3387
3739,-0.2590
3740,-0.5379
3741,-0.2789
3742,0.0797
3743,-0.3387
3744,-0.4781
3745,-0.3984
3746,-0.4582
3747,-0.2988
3748,-0.1992
3749,0.0000
3750,0.1992
3751,0.4383
3752,0.5777
3753,0.5379
3754,0.4781
3755,0.3188
3756,0.0199
3757,-0.1992
3758,-0.4980
3759,-0.4980
3760,-0.1395
3761,0.1992
3762,0.5777
3763,0.8766
3764,1.0559
3765,1.1555
3766,1.0359
3767,0.8168
3768,0.2789
3769,-0.2988
3770,-1.2352
3771,-0.7371
3772,-0.9563
3773,-1.0957
3774,-0.9961
3775,-0.6773
3776,-0.3188
3777,0.0000
3778,0.1793
3779,0.1992
3780,0.1992
3781,0.1594
3782,0.2590
3783,0.1594
3784,0.1793
3785,0.0000
3786,0.0598
3787,0.1395
3788,-0.0398
3789,-0.0199
3790,0.0797
3791,0.0199
3792,0.1395
3793,0.3586
3794,0.4383
3795,0.5180
3796,0.3586
3797,0.2191
3798,0.1195
3799,0.4781
3800,0.4184
3801,0.3387
3802,0.0598
3803,-0.4383
3804,-0.9363
3805,-0.9961
3806,-0.4383
3807,-0.3984
3808,-0.4980
3809,-0.6973
3810,-0.7371
3811,-0.7172
3812,-0.4582
3813,-0.1793
3814,0.2590
3815,0.5777
3816,0.8367
3817,0.8367
3818,0.5777
3819,0.0000
3820,-0.1793
3821,-0.4383
3822,-0.6973
3823,-0.6773
3824,-0.4184
3825,-0.4582
3826,0.0598
3827,0.2590
3828,0.3387
3829,0.0996
3830,-0.0398
3831,-0.3586
3832,-0.7371
3833,-0.4781
3834,-0.5977
3835,-0.4383
3836,-0.1195
3837,0.0996
3838,0.0598
3839,0.0000
3840,0.0996
3841,0.2590
3842,0.2391
3843,0.2191
3844,0.2590
3845,0.4383
3846,0.6574
3847,0.3984
3848,0.2789
3849,0.5379
3850,0.7570
3851,0.6973
3852,0.6773
3853,0.2590
3854,-0.1594
3855,-0.5578
3856,-0.8566
3857,-0.7770
3858,-0.6973
3859,-0.8766
3860,-0.7770
3861,-0.7969
3862,-0.4781
3863,-0.2590
3864,-0.3785
3865,-0.4383
3866,-0.2391
3867,-0.2391
3868,-0.1793
3869,0.0398
3870,0.2191
3871,0.3387
3872,0.4582
3873,0.6176
3874,0.5977
3875,0.3387
3876,0.1594
3877,0.1793
3878,0.3188
3879,0.1992
3880,0.0398
3881,0.0398
3882,0.0797
3883,0.0996
3884,0.2789
3885,0.1992
3886,0.0996
3887,-0.2789
3888,-0.9363
3889,-0.9961
3890,-0.7371
3891,-0.7969
3892,-0.7770
3893,-0.4383
3894,-0.1992
3895,0.0598
3896,0.2590
3897,0.2191
3898,0.1992
3899,0.2191
3900,0.2191
3901,-0.1793
3902,-0.2988
3903,-0.2191
3904,-0.2789
3905,-0.4781
3906,-0.3387
3907,-0.1594
3908,0.0199
3909,0.2391
3910,0.4383
3911,0.4184
3912,0.4781
3913,0.0797
3914,-0.1793
3915,-0.2391
3916,-0.7172
3917,-0.7172
3918,-1.0359
3919,-0.6176
3920,-0.1395
3921,0.1395
3922,0.3188
3923,0.3586
3924,0.3586
3925,0.2391
3926,-0.0996
3927,-0.2590
3928,-0.1992
3929,-0.2988
3930,-0.2191
3931,-0.0199
3932,0.0797
3933,0.1793
3934,0.4383
3935,0.5777
3936,0.3785
3937,0.0996
3938,0.0598
3939,0.0598
3940,0.0199
3941,0.1992
3942,0.4383
3943,0.4781
3944,0.3586
3945,0.3387
3946,0.2789
3947,0.1195
3948,-0.1395
3949,-0.1195
3950,-0.3586
3951,-0.6773
3952,-0.6375
3953,-0.6973
3954,-0.4781
3955,-0.1992
3956,0.0797
3957,0.2590
3958,0.4383
3959,0.5977
3960,0.3586
3961,0.1793
3962,-0.0199
3963,-0.5379
3964,-0.5977
3965,-0.2988
3966,-0.0398
3967,0.0199
3968,0.0199
3969,0.0996
3970,0.1395
3971,-0.0398
3972,-0.0996
3973,0.0398
3974,0.5180
3975,0.6176
3976,0.8168
3977,0.8367
3978,0.4582
3979,0.1195
3980,-0.2391
3981,-0.8367
3982,-0.6574
3983,-0.4781
3984,-0.1594
3985,0.1992
3986,0.1594
3987,0.3785
3988,0.3984
3989,0.0797
3990,-0.3785
3991,-0.5777
3992,-0.6973
3993,-0.8367
3994,-0.3984
3995,-0.3188
3996,-0.2789
3997,-0.2590
3998,-0.2391
3999,-0.0797
4000,0.0598
4001,0.2789
4002,0.5180
4003,0.5379
4004,0.5379
4005,0.4781
4006,0.1992
4007,0.1594
4008,0.0398
4009,-0.2191
4010,0.0199
4011,0.0996
4012,-0.1395
4013,-0.2191
4014,-0.1793
4015,-0.3785
4016,0.0000
4017,0.3785
4018,0.1195
4019,0.0996
4020,0.0797
4021,0.0000
4022,0.0398
4023,0.0797
4024,0.0996
4025,-0.0398
4026,-0.1594
4027,0.1594
4028,0.2391
4029,0.1195
4030,0.2191
4031,0.6773
4032,0.9563
4033,1.2352
4034,0.9563
4035,0.5977
4036,0.1992
4037,-0.0398
4038,0.2590
4039,0.2789
4040,-0.2191
4041,-0.4383
4042,-0.8766
4043,-0.8168
4044,-0.3586
4045,-0.2988
4046,-0.1992
4047,0.0797
4048,0.0996
4049,0.1395
4050,0.0797
4051,0.0996
4052,0.1195
4053,0.3586
4054,0.2391
4055,-0.0199
4056,-0.2391
4057,-0.1793
4058,-0.1793
4059,-0.0398
4060,0.2590
4061,0.1594
4062,0.0797
4063,-0.0199
4064,0.0598
4065,0.2391
4066,0.2191
4067,0.0398
4068,-0.1594
4069,-0.0996
4070,0.4184
4071,0.6973
4072,0.4383
4073,-0.1395
4074,-0.7371
4075,-1.5340
4076,-1.8727
4077,-1.0359
4078,-0.4980
4079,-0.5180
4080,-0.4980
4081,-0.2789
4082,-0.1992
4083,-0.1395
4084,0.0797
4085,0.2590
4086,0.2988
4087,0.4582
4088,0.3785
4089,0.1195
4090,-0.0996
4091,-0.2590
4092,-0.0199
4093,0.0000
4094,-0.1395
4095,-0.0996
4096,-0.1793
4097,-0.1195
4098,0.0000
4099,0.1594
4100,0.4582
4101,0.6176
4102,0.6973
4103,0.7172
4104,0.5180
4105,0.2590
4106,-0.2391
4107,-0.1195
4108,0.0000
4109,0.1195
4110,0.4383
4111,0.2590
4112,0.0398
4113,-0.4383
4114,-0.9363
4115,-0.4980
4116,-0.2391
4117,0.0797
4118,0.2191
4119,0.1594
4120,0.1395
4121,0.0000
4122,0.0199
4123,0.2191
4124,0.0996
4125,0.0598
4126,0.0797
4127,0.0598
4128,0.0598
4129,-0.0199
4130,-0.1793
4131,-0.1395
4132,-0.1195
4133,-0.3586
4134,-0.1793
4135,-0.0398
4136,-0.1195
4137,-0.3586
4138,-0.3387
4139,-0.1195
4140,0.2789
4141,0.2789
4142,0.1395
4143,0.1992
4144,0.1992
4145,0.2191
4146,0.2988
4147,0.0797
4148,-0.5578
4149,-0.6773
4150,-0.4383
4151,-0.0797
4152,-0.0996
4153,0.0398
4154,0.2191
4155,0.3188
4156,0.2789
4157,0.0000
4158,-0.2988
4159,-0.3785
4160,-0.1992
4161,0.0000
4162,0.2590
4163,0.4383
4164,0.4184
4165,0.4781
4166,0.4781
4167,0.2789
4168,0.1395
4169,-0.2391
4170,-0.2590
4171,-0.5379
4172,-0.8168
4173,-0.7371
4174,-0.1594
4175,0.0996
4176,0.2191
4177,0.2988
4178,0.3785
4179,0.3586
4180,0.0000
4181,-0.1594
4182,-0.1992
4183,-0.0797
4184,-0.1395
4185,-0.1195
4186,-0.1992
4187,-0.0398
4188,0.3188
4189,0.2590
4190,0.0996
4191,-0.4383
4192,-0.5777
4193,-0.5578
4194,-0.6375
4195,-0.3387
4196,-0.0199
4197,0.1195
4198,0.1992
4199,0.1992
4200,0.1992
4201,0.2988
4202,0.2988
4203,0.4781
4204,0.4582
4205,0.2789
4206,-0.2191
4207,-0.3586
4208,-1.1953
4209,-1.3547
4210,-0.4781
4211,0.0000
4212,0.1395
4213,0.2789
4214,0.5180
4215,0.3387
4216,0.5180
4217,0.5578
4218,0.5180
4219,0.3387
4220,0.1793
4221,-0.2191
4222,-0.6176
4223,-0.6773
4224,-0.3785
4225,-0.3785
4226,-0.3785
4227,-0.3387
4228,-0.0398
4229,0.1992
4230,0.1594
4231,-0.0199
4232,-0.0598
4233,-0.3188
4234,-0.4184
4235,0.0996
4236,0.2391
4237,0.2590
4238,0.0398
4239,-0.0199
4240,0.2191
4241,0.1594
4242,0.1793
4243,-0.0199
4244,0.0797
4245,0.2590
4246,-0.2391
4247,-0.7969
4248,-0.7172
4249,-0.6773
4250,-0.4980
4251,-0.4383
4252,-0.2391
4253,-0.0598
4254,-0.0199
4255,0.0598
4256,0.1992
4257,0.0199
4258,-0.1594
4259,-0.1594
4260,-0.1395
4261,-0.0996
4262,-0.1395
4263,-0.0598
4264,-0.1793
4265,-0.1395
4266,0.2191
4267,0.6176
4268,0.8766
4269,0.8766
4270,0.4582
4271,-0.1395
4272,-1.1555
4273,-0.5180
4274,-0.3984
4275,-0.2590
4276,0.3586
4277,0.3785
4278,0.0598
4279,-0.1594
4280,-0.4383
4281,-0.3984
4282,-0.4582
4283,-0.6375
4284,-0.7172
4285,-0.4383
4286,-0.0598
4287,0.2191
4288,0.2590
4289,0.2789
4290,0.1195
4291,-0.1992
4292,-0.0598
4293,-0.1793
4294,-0.3387
4295,-0.3387
4296,-0.2789
4297,0.0000
4298,0.2391
4299,0.5777
4300,0.8965
4301,0.9563
4302,0.7969
4303,0.3785
4304,-0.6375
4305,-0.6973
4306,-0.5379
4307,-0.4184
4308,-0.5180
4309,-0.4383
4310,-0.1793
4311,-0.6375
4312,-0.2988
4313,0.0000
4314,0.2191
4315,0.4383
4316,0.5379
4317,0.5578
4318,0.6375
4319,0.5777
4320,0.4184
4321,0.2590
4322,-0.0797
4323,-0.2590
4324,-0.2988
4325,-0.4582
4326,-0.5777
4327,-0.0199
4328,0.2191
4329,0.3188
4330,0.4980
4331,0.7770
4332,0.8566
4333,0.8566
4334,0.3785
4335,0.1395
4336,-0.1793
4337,-0.3586
4338,-0.6375
4339,-0.8168
4340,-0.7570
4341,-0.3984
4342,-0.5777
4343,-0.5777
4344,-0.4383
4345,-0.0797
4346,0.1395
4347,0.2191
4348,0.2988
4349,0.3586
4350,0.1992
4351,-0.0996
4352,-0.2391
4353,0.1594
4354,0.4781
4355,0.6176
4356,0.5379
4357,0.1793
4358,-0.5977
4359,-1.5141
4360,-1.4742
4361,-0.8566
4362,-0.5180
4363,0.0598
4364,0.2988
4365,0.5379
4366,0.5977
4367,0.4980
4368,0.3586
4369,-0.2590
4370,-0.6176
4371,-0.4184
4372,0.1594
4373,0.3188
4374,0.4383
4375,0.5379
4376,0.6176
4377,0.6773
4378,0.4781
4379,0.4184
4380,-0.0598
4381,-0.5578
4382,-1.1355
4383,-0.5578
4384,-0.2391
4385,-0.0598
4386,0.0996
4387,0.2789
4388,0.2590
4389,0.2789
4390,0.4383
4391,0.4582
4392,0.4184
4393,0.3586
4394,-0.0797
4395,0.0797
4396,0.0598
4397,0.1195
4398,0.0797
4399,-0.0398
4400,-0.0398
4401,-0.0996
4402,0.0598
4403,0.0996
4404,0.0598
4405,-0.1992
4406,-0.2988
4407,-0.9164
4408,-1.4742
4409,-1.0559
4410,-0.6176
4411,-0.3188
4412,0.0598
4413,0.0598
4414,0.0598
4415,0.0000
4416,-0.3984
4417,-0.2988
4418,-0.1395
4419,0.1594
4420,0.4184
4421,0.7172
4422,0.7969
4423,0.8367
4424,0.5578
4425,0.2191
4426,-0.1594
4427,-0.4980
4428,-0.9762
4429,-1.0957
4430,-0.6176
4431,-0.3785
4432,-0.1793
4433,0.1793
4434,0.3586
4435,0.4383
4436,0.5379
4437,0.4383
4438,0.2789
4439,0.0398
4440,-0.4184
4441,-0.3785
4442,-0.0797
4443,0.1793
4444,0.3387
4445,0.6375
4446,0.4781
4447,0.1594
4448,-0.1395
4449,-0.6574
4450,-0.5777
4451,-0.2191
4452,0.1395
4453,0.2789
4454,0.0797
4455,0.0000
4456,0.0199
4457,0.0598
4458,0.0996
4459,0.0797
4460,0.0000
4461,0.0797
4462,0.2391
4463,0.2191
4464,0.4980
4465,0.6375
4466,0.5777
4467,0.3586
4468,-0.3984
4469,-1.0160
4470,-1.1555
4471,-1.3547
4472,-0.9961
4473,-0.5180
4474,-0.2391
4475,0.0996
4476,0.3785
4477,0.2590
4478,0.1395
4479,-0.1594
4480,-0.2988
4481,-0.0199
4482,0.1195
4483,0.1594
4484,0.0000
4485,-0.2191
4486,-0.3785
4487,-0.1594
4488,-0.0398
4489,0.2191
4490,0.3387
4491,0.4383
4492,0.3984
4493,0.3188
4494,0.2988
4495,0.1793
4496,-0.0996
4497,-0.4582
4498,-0.8566
4499,-0.8566
4500,-0.3188
4501,0.0199
4502,0.0797
4503,0.0996
4504,0.3188
4505,0.4781
4506,0.5180
4507,0.5379
4508,0.3586
4509,0.4781
4510,0.6176
4511,0.3387
4512,0.0398
4513,-0.2391
4514,-0.6176
4515,-0.6973
4516,-0.4383
4517,-0.1594
4518,-0.0797
4519,0.0000
4520,0.1793
4521,0.4781
4522,0.9164
4523,1.3746
4524,1.4145
4525,0.9563
4526,0.0000
4527,-1.0160
4528,-1.4742
4529,-1.6734
4530,-1.3945
4531,-0.7969
4532,-0.2789
4533,0.3387
4534,0.7770
4535,0.8367
4536,0.6176
4537,-0.0199
4538,-0.5379
4539,-0.1793
4540,-0.0199
4541,0.0797
4542,0.1992
4543,0.4781
4544,0.6375
4545,0.4781
4546,0.2191
4547,0.2191
4548,0.0398
4549,-0.2590
4550,-0.3586
4551,-0.3984
4552,-0.4582
4553,-0.4383
4554,-0.3785
4555,0.1594
4556,0.2988
4557,0.4383
4558,0.5578
4559,0.5977
4560,0.3188
4561,0.1395
4562,0.3387
4563,0.6176
4564,0.6973
4565,0.1793
4566,-0.0996
4567,-0.0996
4568,-0.4582
4569,-0.7172
4570,-0.6773
4571,-0.8367
4572,-0.5180
4573,-0.0598
4574,0.0598
4575,0.0398
4576,0.2590
4577,0.3984
4578,0.4781
4579,0.3984
4580,0.2191
4581,-0.0199
4582,0.0000
4583,0.2789
4584,0.4980
4585,0.5379
4586,0.4781
4587,0.1195
4588,-0.1395
4589,-0.5977
4590,-0.9762
4591,-0.3188
4592,-0.1195
4593,0.0598
4594,0.3785
4595,0.5379
4596,0.4781
4597,0.2191
4598,-0.1395
4599,-0.5578
4600,-0.6574
4601,-0.3785
4602,-0.2590
4603,-0.4383
4604,-0.2590
4605,-0.2789
4606,-0.0797
4607,0.1195
4608,0.5777
4609,0.9762
4610,1.0957
4611,0.7371
4612,0.1992
4613,-0.4582
4614,-1.0160
4615,-0.6176
4616,-0.4781
4617,-0.4184
4618,-0.2988
4619,-0.0398
4620,0.0398
4621,-0.0598
4622,-0.1594
4623,-0.1594
4624,-0.0398
4625,0.2191
4626,0.4184
4627,0.5578
4628,0.6375
4629,0.5180
4630,0.3785
4631,-0.1793
4632,-0.7371
4633,-1.1156
4634,-0.5379
4635,-0.3785
4636,-0.3984
4637,-0.3188
4638,-0.2789
4639,-0.2789
4640,-0.2191
4641,-0.0199
4642,0.2988
4643,0.3984
4644,0.4383
4645,0.4781
4646,0.2191
4647,-0.3785
4648,-0.2590
4649,-0.3188
4650,-0.2590
4651,0.0000
4652,0.0199
4653,-0.0598
4654,-0.1395
4655,-0.1594
4656,-0.2391
4657,-0.0996
4658,-0.1594
4659,-0.2191
4660,0.0398
4661,0.0000
4662,0.0199
4663,-0.1195
4664,-0.2590
4665,-0.1793
4666,-0.2191
4667,-0.0996
4668,-0.1992
4669,0.0398
4670,0.2191
4671,0.1992
4672,0.4980
4673,0.3785
4674,-0.2590
4675,-0.6176
4676,-0.9563
4677,-1.1555
4678,-1.4145
4679,-1.3547
4680,-0.3387
4681,-0.0199
4682,0.2191
4683,0.2988
4684,0.4781
4685,0.4582
4686,0.3586
4687,0.0797
4688,-0.2590
4689,-0.3586
4690,-0.1195
4691,0.0797
4692,0.1992
4693,-0.1195
4694,-0.5180
4695,-0.5180
4696,-0.2988
4697,-0.1992
4698,-0.1395
4699,-0.1195
4700,-0.0398
4701,-0.1992
4702,-0.1793
4703,-0.4781
4704,0.1594
4705,0.5379
4706,0.5777
4707,0.5180
4708,0.4980
4709,-0.0199
4710,-0.3785
4711,-0.9961
4712,-1.2152
4713,-0.6773
4714,-0.0598
4715,0.0199
4716,0.1195
4717,0.2590
4718,0.2191
4719,0.2590
4720,0.0797
4721,0.0199
4722,0.0000
4723,-0.2191
4724,-0.2191
4725,-0.1793
4726,0.0398
4727,0.1793
4728,-0.1395
4729,-0.0199
4730,-0.1395
4731,-0.1793
4732,0.0797
4733,0.0000
4734,-0.0398
4735,-0.1594
4736,-0.0199
4737,-0.0996
4738,0.1195
4739,0.4781
4740,0.5777
4741,0.3984
4742,0.0000
4743,-0.1992
4744,-0.1195
4745,-0.1594
4746,-0.2590
4747,-0.3188
4748,-0.0199
4749,0.3188
4750,0.3586
4751,0.3785
4752,0.4980
4753,0.5977
4754,0.6176
4755,0.5777
4756,0.2988
4757,0.1594
4758,0.0996
4759,-0.2590
4760,-0.3188
4761,0.0398
4762,0.2191
4763,0.1594
4764,0.0797
4765,-0.0996
4766,-0.3387
4767,-0.2988
4768,-0.2789
4769,-0.0199
4770,0.3188
4771,0.5777
4772,0.6574
4773,0.8367
4774,0.9164
4775,0.5977
4776,0.0000
4777,-0.5977
4778,-0.7770
4779,-0.5977
4780,-0.1594
4781,-0.0199
4782,0.0598
4783,-0.0199
4784,-0.2391
4785,-0.0598
4786,0.0398
4787,-0.0598
4788,0.0598
4789,0.1195
4790,0.1594
4791,0.2789
4792,0.1395
4793,0.1195
4794,0.1195
4795,0.1395
4796,0.0398
4797,0.0797
4798,-0.1992
4799,-0.4383
4800,-0.5777
4801,-0.1992
4802,-0.0199
4803,0.2391
4804,0.2191
4805,0.1793
4806,0.3785
4807,0.5578
4808,0.7371
4809,0.6176
4810,0.2590
4811,-0.0199
4812,-0.6176
4813,-0.9363
4814,-0.5578
4815,-0.4582
4816,-0.1992
4817,-0.0398
4818,0.1395
4819,0.2391
4820,0.3586
4821,0.2391
4822,0.0598
4823,-0.1395
4824,-0.0398
4825,-0.1594
4826,0.0199
4827,-0.0199
4828,0.0996
4829,0.0000
4830,-0.1594
4831,-0.5180
4832,-0.4383
4833,-0.2191
4834,0.0199
4835,0.3188
4836,0.5777
4837,0.5180
4838,0.4383
4839,0.2191
4840,0.1793
4841,0.3586
4842,0.3586
4843,-0.0598
4844,0.1395
4845,0.0398
4846,-0.4184
4847,-0.8766
4848,-0.7371
4849,-0.7172
4850,-1.0359
4851,-0.3785
4852,-0.1395
4853,0.0000
4854,0.0398
4855,0.1992
4856,0.4383
4857,0.6574
4858,0.5977
4859,0.5777
4860,0.2988
4861,-0.3586
4862,-0.5777
4863,-0.4582
4864,-0.3387
4865,-0.4184
4866,-0.4781
4867,-0.3586
4868,-0.3984
4869,-0.1793
4870,-0.0598
4871,0.0398
4872,0.2191
4873,0.1395
4874,0.1992
4875,0.1992
4876,0.1793
4877,0.2988
4878,0.2988
4879,0.3387
4880,0.3586
4881,0.2590
4882,0.2191
4883,0.0000
4884,-0.1793
4885,0.0398
4886,0.1594
4887,-0.1395
4888,0.0598
4889,0.0199
4890,-0.2191
4891,-0.1992
4892,-0.2789
4893,-0.2191
4894,-0.3188
4895,-0.4383
4896,-0.5977
4897,-0.1395
4898,0.1395
4899,0.3785
4900,0.4582
4901,0.2789
4902,0.0598
4903,0.0000
4904,-0.0598
4905,0.0797
4906,0.0996
4907,-0.2789
4908,-0.4383
4909,-0.6773
4910,-0.7770
4911,-0.4582
4912,-0.1395
4913,-0.0199
4914,0.0996
4915,0.2590
4916,0.4781
4917,0.6574
4918,0.6375
4919,0.3586
4920,-0.1793
4921,-0.4383
4922,-0.4980
4923,-0.6773
4924,-0.2988
4925,-0.0996
4926,0.1195
4927,0.3387
4928,0.2391
4929,0.0199
4930,-0.0598
4931,0.0598
4932,0.1195
4933,0.3984
4934,0.0000
4935,-0.4781
4936,-0.0996
4937,0.0000
4938,-0.1992
4939,-0.1992
4940,-0.1594
4941,-0.2191
4942,-0.2391
4943,-0.1395
4944,0.0996
4945,0.2590
4946,0.1395
4947,0.2391
4948,0.3188
4949,-0.0598
4950,-0.0199
4951,0.0598
4952,0.4184
4953,0.2988
4954,0.1395
4955,-0.0598
4956,-0.2789
4957,-0.1992
4958,-0.1594
4959,0.0199
4960,-0.1195
4961,-0.4980
4962,-0.8566
4963,-0.4781
4964,0.1594
4965,0.1195
4966,0.3785
4967,0.5977
4968,0.5777
4969,0.4980
4970,0.2590
4971,0.2191
4972,0.6773
4973,0.6176
4974,0.1195
4975,-0.0797
4976,-0.2590
4977,-0.5180
4978,-0.8566
4979,-0.8965
4980,-0.4781
4981,-0.0598
4982,0.1992
4983,0.0598
4984,0.0797
4985,0.1992
4986,0.1195
4987,0.4582
4988,0.5777
4989,0.4184
4990,0.2391
4991,0.1395
4992,-0.5180
4993,-0.8566
4994,-0.6574
4995,-0.4781
4996,-0.3785
4997,-0.0398
4998,0.1594
4999,0.4781
5000,0.7371
5001,0.6176
5002,0.5578
5003,0.4781
5004,-0.2191
5005,-0.3785
5006,-0.3586
5007,-0.4582
5008,-0.5379
5009,-0.4582
5010,-0.3188
5011,-0.1793
5012,0.0199
5013,0.0598
5014,0.2391
5015,0.3984
5016,0.4980
5017,0.7371
5018,0.7969
5019,0.7969
5020,0.6973
5021,0.1992
5022,-0.2789
5023,-0.3586
5024,-0.9563
5025,-0.4582
5026,-0.1793
5027,0.1992
5028,0.1992
5029,0.0598
5030,-0.3188
5031,-0.3586
5032,-0.1395
5033,-0.0996
5034,-0.2590
5035,-0.1793
5036,0.1594
5037,0.2590
5038,0.4980
5039,0.3785
5040,0.0398
5041,-0.2191
5042,-0.4781
5043,-0.5977
5044,-0.5777
5045,-0.3387
5046,-0.0199
5047,0.0996
5048,0.1992
5049,0.4184
5050,0.4781
5051,0.4184
5052,0.1195
5053,-0.3785
5054,-0.6375
5055,-0.3586
5056,-0.0996
5057,-0.1594
5058,-0.1395
5059,0.0598
5060,-0.0398
5061,-0.2191
5062,-0.1195
5063,-0.1195
5064,-0.2988
5065,-0.1594
5066,0.0199
5067,-0.1195
5068,-0.0199
5069,-0.1195
5070,-0.1992
5071,-0.2988
5072,-0.3387
5073,-0.3387
5074,-0.1395
5075,-0.0398
5076,0.1195
5077,0.2789
5078,0.2789
5079,0.3586
5080,0.3984
5081,0.0598
5082,-0.1793
5083,-0.5578
5084,-0.6574
5085,-0.2988
5086,-0.3387
5087,-0.1195
5088,0.3984
5089,0.7371
5090,0.9563
5091,1.0160
5092,0.8566
5093,0.0996
5094,-0.5777
5095,-0.6773
5096,-0.9563
5097,-1.0160
5098,-0.4582
5099,-0.1395
5100,0.0000
5101,0.0996
5102,0.0398
5103,-0.1594
5104,-0.0996
5105,0.0598
5106,0.0797
5107,0.1195
5108,0.0996
5109,-0.0199
5110,0.0199
5111,-0.0598
5112,-0.0996
5113,-0.1395
5114,-0.2191
5115,0.1195
5116,0.2391
5117,0.0398
5118,-0.5379
5119,-0.7770
5120,-0.4383
5121,-0.4781
5122,-0.1594
5123,0.0996
5124,0.3188
5125,0.5777
5126,0.9563
5127,0.9762
5128,0.6773
5129,0.3586
5130,-0.3586
5131,-0.3785
5132,-0.7371
5133,-1.1754
5134,-1.0160
5135,-0.6973
5136,-0.5379
5137,-0.2391
5138,0.0598
5139,0.1992
5140,0.1195
5141,0.1594
5142,0.2789
5143,0.3188
5144,0.2391
5145,0.3387
5146,0.5977
5147,0.7172
5148,0.7570
5149,0.5777
5150,0.0000
5151,-0.9563
5152,-0.6176
5153,-0.2789
5154,-0.2988
5155,-0.3984
5156,-0.3785
5157,-0.2590
5158,-0.0398
5159,0.3387
5160,0.5578
5161,0.6973
5162,0.4383
5163,-0.1395
5164,-0.2590
5165,-0.7770
5166,-0.7172
5167,-0.1594
5168,-0.3785
5169,-0.2789
5170,0.0000
5171,0.1395
5172,0.2789
5173,0.5578
5174,0.7172
5175,0.7770
5176,0.5379
5177,0.2191
5178,-0.3188
5179,-0.8168
5180,-0.9363
5181,-0.5777
5182,-0.6176
5183,-0.0996
5184,0.3785
5185,0.5180
5186,0.5180
5187,0.4383
5188,0.6176
5189,0.3785
5190,0.0996
5191,-0.2191
5192,-0.2988
5193,-0.0797
5194,-0.1992
5195,-0.1793
5196,-0.0797
5197,0.0797
5198,0.2789
5199,0.6375
5200,0.5777
5201,0.2191
5202,-0.1395
5203,-0.5379
5204,-0.2391
5205,-0.2391
5206,-0.3387
5207,-0.4184
5208,-0.6176
5209,-0.2590
5210,0.3984
5211,0.4781
5212,0.5180
5213,0.4184
5214,0.1992
5215,-0.0199
5216,-0.0996
5217,-0.2590
5218,-0.2391
5219,-0.1195
5220,-0.0398
5221,0.4383
5222,0.9164
5223,0.9164
5224,0.4980
5225,-0.0598
5226,-0.7969
5227,-0.9563
5228,-0.6375
5229,-0.4184
5230,-0.0598
5231,0.2988
5232,0.5180
5233,0.7172
5234,0.5379
5235,0.1992
5236,0.1395
5237,-0.0797
5238,-0.4980
5239,-0.6973
5240,-0.4582
5241,-0.3984
5242,-0.4383
5243,-0.2590
5244,-0.1992
5245,0.0000
5246,0.3984
5247,0.4184
5248,0.2590
5249,0.3188
5250,0.3387
5251,0.2391
5252,0.3387
5253,0.2988
5254,0.1195
5255,-0.3387
5256,-0.7172
5257,-0.3984
5258,-0.5777
5259,-0.3387
5260,0.2590
5261,0.2789
5262,0.4781
5263,0.5977
5264,0.4781
5265,0.6973
5266,0.8766
5267,0.6973
5268,0.7969
5269,0.4383
5270,-0.1594
5271,-0.5578
5272,-0.7770
5273,-0.6973
5274,-0.6574
5275,-0.4582
5276,-0.2789
5277,-0.0598
5278,0.0797
5279,0.3387
5280,0.3586
5281,0.1395
5282,-0.0598
5283,-0.2789
5284,-0.0996
5285,0.1992
5286,0.2391
5287,0.1594
5288,0.0199
5289,-0.1992
5290,-0.3785
5291,-0.2391
5292,-0.3387
5293,-0.1195
5294,0.2391
5295,0.2590
5296,0.0199
5297,-0.0797
5298,-0.0398
5299,0.2988
5300,0.5180
5301,0.4781
5302,0.4781
5303,0.3188
5304,0.2191
5305,0.3785
5306,0.2590
5307,-0.3586
5308,-0.4781
5309,-0.9363
5310,-0.9762
5311,-0.5379
5312,-0.1395
5313,0.1195
5314,0.1594
5315,0.3387
5316,0.2191
5317,0.0996
5318,-0.3188
5319,-0.4980
5320,-0.0199
5321,0.0398
5322,0.1793
5323,0.3188
5324,0.2590
5325,-0.1793
5326,-0.4980
5327,-0.2789
5328,-0.1992
5329,-0.2789
5330,-0.0797
5331,-0.2191
5332,-0.2191
5333,0.0598
5334,0.4184
5335,0.5180
5336,0.4184
5337,0.2191
5338,-0.2988
5339,-0.3188
5340,-0.6176
5341,-0.8367
5342,-0.3785
5343,-0.1992
5344,0.0398
5345,0.1594
5346,0.2191
5347,0.3984
5348,0.4980
5349,0.7172
5350,0.7570
5351,0.7371
5352,0.4582
5353,-0.0598
5354,-0.4184
5355,-0.6375
5356,-0.3387
5357,-0.1594
5358,-0.1594
5359,-0.0797
5360,0.1594
5361,0.2391
5362,0.3188
5363,0.3586
5364,0.3984
5365,0.2590
5366,0.0996
5367,-0.2988
5368,-0.1992
5369,0.0398
5370,0.1195
5371,0.0000
5372,0.0000
5373,0.1195
5374,0.3586
5375,0.5180
5376,0.7172
5377,0.5977
5378,0.4980
5379,0.2590
5380,-0.0598
5381,-0.1594
5382,-0.1195
5383,-0.1793
5384,0.0000
5385,0.2789
5386,0.4781
5387,0.4582
5388,-0.0598
5389,-0.0996
5390,-0.1992
5391,-0.6574
5392,-0.6176
5393,-0.3586
5394,-0.2391
5395,-0.0398
5396,-0.0199
5397,-0.0598
5398,-0.1594
5399,0.1395
5400,0.6375
5401,0.6176
5402,0.5578
5403,0.2988
5404,0.0996
5405,0.0598
5406,-0.3984
5407,-0.3387
5408,0.0598
5409,0.1395
5410,0.0996
5411,0.0199
5412,-0.2391
5413,-0.4781
5414,-0.5379
5415,-0.1992
5416,-0.0598
5417,0.1395
5418,0.3785
5419,0.4582
5420,0.1395
5421,0.0000
5422,0.1594
5423,0.5777
5424,0.8367
5425,0.7172
5426,0.3984
5427,0.0398
5428,-0.2191
5429,-0.1195
5430,-0.0996
5431,-0.4184
5432,-0.0996
5433,0.2590
5434,0.2988
5435,0.2988
5436,0.4582
5437,0.6973
5438,0.3785
5439,0.0996
5440,-0.1594
5441,0.0797
5442,0.1992
5443,0.1395
5444,-0.1195
5445,-0.1195
5446,-0.1395
5447,0.0598
5448,-0.2391
5449,-0.3188
5450,-0.1195
5451,0.0199
5452,0.1793
5453,0.3785
5454,0.5180
5455,0.4980
5456,0.1793
5457,-0.2988
5458,-0.3785
5459,-0.0398
5460,0.0000
5461,0.2391
5462,0.3188
5463,0.1195
5464,-0.0797
5465,-0.0398
5466,0.0000
5467,-0.1992
5468,-0.3984
5469,-0.3387
5470,-0.0199
5471,0.0199
5472,-0.0398
5473,0.0000
5474,-0.2391
5475,-0.2191
5476,-0.0199
5477,0.0000
5478,0.0797
5479,0.2191
5480,0.5777
5481,0.4184
5482,0.4383
5483,0.4184
5484,0.0398
5485,-0.3188
5486,-0.2391
5487,-0.2391
5488,0.0199
5489,0.1395
5490,0.0199
5491,-0.1395
5492,-0.0996
5493,-0.1992
5494,-0.4781
5495,-0.6574
5496,-0.4582
5497,-0.7172
5498,-0.6973
5499,-0.3586
5500,-0.2988
5501,0.0598
5502,0.0598
5503,0.0000
5504,-0.0398
5505,-0.0797
5506,-0.1195
5507,-0.1395
5508,-0.1992
5509,-0.1594
5510,-0.0598
5511,-0.0199
5512,0.0598
5513,0.5180
5514,0.6574
5515,0.6773
5516,0.3586
5517,0.1594
5518,-0.2191
5519,-0.8566
5520,-0.7570
5521,-0.4980
5522,-0.3785
5523,-0.2789
5524,-0.2391
5525,-0.4184
5526,-0.4383
5527,-0.2789
5528,-0.0398
5529,-0.1395
5530,0.1195
5531,0.1395
5532,0.1195
5533,-0.1195
5534,-0.0398
5535,0.0598
5536,0.0000
5537,-0.1793
5538,-0.3188
5539,-0.4781
5540,-0.1793
5541,-0.0199
5542,0.0797
5543,-0.0598
5544,-0.2391
5545,-0.2391
5546,-0.0199
5547,0.0797
5548,0.2391
5549,0.3387
5550,0.3785
5551,0.5180
5552,0.7969
5553,0.9363
5554,0.8566
5555,0.8168
5556,0.4781
5557,0.0199
5558,-0.4184
5559,-0.7172
5560,-0.6773
5561,-0.4781
5562,-0.4781
5563,-0.5578
5564,-0.7172
5565,-0.6973
5566,-0.2789
5567,0.0797
5568,0.1793
5569,0.2988
5570,0.1594
5571,-0.2789
5572,-0.0996
5573,0.1594
5574,0.3188
5575,0.3188
5576,0.4184
5577,0.4582
5578,0.4383
5579,0.2590
5580,-0.1395
5581,-0.2590
5582,-0.2391
5583,-0.1395
5584,-0.0598
5585,-0.0398
5586,0.1992
5587,0.2988
5588,0.3387
5589,0.2789
5590,0.3188
5591,-0.1395
5592,-0.0996
5593,-0.2191
5594,-0.2391
5595,-0.0398
5596,-0.1594
5597,-0.1594
5598,-0.0797
5599,-0.2391
5600,-0.1395
5601,0.0199
5602,0.0398
5603,0.2391
5604,0.3785
5605,0.1395
5606,-0.0996
5607,-0.2590
5608,-0.2590
5609,-0.0996
5610,-0.1395
5611,0.2789
5612,0.3984
5613,0.4184
5614,0.2988
5615,0.2590
5616,0.4184
5617,0.3387
5618,0.0598
5619,-0.1395
5620,-0.1395
5621,-0.3387
5622,-0.2391
5623,-0.2191
5624,-0.3785
5625,-0.1992
5626,-0.0598
5627,0.1594
5628,0.2789
5629,0.3387
5630,0.5180
5631,0.4582
5632,0.3188
5633,-0.0797
5634,-0.2391
5635,-0.1594
5636,-0.0797
5637,-0.1395
5638,-0.0797
5639,-0.1793
5640,-0.5180
5641,-0.5977
5642,-0.5777
5643,-0.4781
5644,-0.2590
5645,-0.1195
5646,0.0598
5647,0.4184
5648,0.4980
5649,0.4184
5650,0.3188
5651,0.3785
5652,0.2191
5653,0.4184
5654,0.3984
5655,-0.1195
5656,-0.3984
5657,-0.2988
5658,-0.2988
5659,-0.0598
5660,0.0797
5661,0.2391
5662,0.4582
5663,0.0598
5664,0.0598
5665,-0.0398
5666,-0.1793
5667,-0.2191
5668,-0.4582
5669,-0.1395
5670,0.0199
5671,0.1594
5672,0.1395
5673,0.0996
5674,0.1594
5675,0.0398
5676,-0.0797
5677,-0.0598
5678,-0.0199
5679,0.0598
5680,0.1395
5681,0.2391
5682,0.3586
5683,0.2590
5684,0.3188
5685,0.1992
5686,-0.1594
5687,-0.2789
5688,-0.4184
5689,-0.0996
5690,0.0199
5691,0.0398
5692,0.0199
5693,0.2590
5694,0.3984
5695,0.2191
5696,0.1195
5697,-0.0797
5698,-0.4184
5699,-0.3785
5700,-0.3188
5701,-0.1195
5702,0.0199
5703,0.0598
5704,-0.2391
5705,-0.3586
5706,-0.3984
5707,-0.5180
5708,-0.1992
5709,0.0199
5710,0.0398
5711,-0.1395
5712,-0.3387
5713,-0.2988
5714,-0.5578
5715,-0.6574
5716,-0.4582
5717,-0.5578
5718,-0.1594
5719,0.2191
5720,0.3188
5721,0.4184
5722,0.3387
5723,0.3188
5724,0.2391
5725,0.2590
5726,0.3586
5727,0.4383
5728,0.4184
5729,0.3188
5730,0.0797
5731,-0.3387
5732,-0.4980
5733,-0.6973
5734,-0.7969
5735,-0.5977
5736,-0.3586
5737,-0.1395
5738,-0.1594
5739,-0.1793
5740,-0.0598
5741,0.0000
5742,0.0996
5743,0.1992
5744,0.3984
5745,0.4184
5746,0.3188
5747,-0.0398
5748,0.0797
5749,0.1395
5750,-0.0996
5751,-0.2391
5752,-0.2391
5753,-0.3586
5754,-0.0996
5755,-0.0398
5756,0.0000
5757,0.0797
5758,0.1992
5759,0.3984
5760,0.5379
5761,0.4781
5762,0.5977
5763,0.5777
5764,0.2590
5765,-0.0398
5766,0.0598
5767,0.0398
5768,-0.1395
5769,-0.4383
5770,-0.4582
5771,-0.2590
5772,-0.2988
5773,-0.2191
5774,-0.1195
5775,-0.1992
5776,-0.1395
5777,-0.0598
5778,-0.0996
5779,0.0598
5780,0.2391
5781,0.2789
5782,0.4383
5783,0.4980
5784,0.3586
5785,-0.0996
5786,-0.0199
5787,0.1594
5788,0.1195
5789,0.0996
5790,0.1395
5791,0.3188
5792,0.4383
5793,0.4980
5794,0.4383
5795,0.3188
5796,0.4383
5797,0.3984
5798,-0.1793
5799,-0.1793
5800,-0.3586
5801,-0.7770
5802,-0.7172
5803,-0.9762
5804,-0.6574
5805,-0.2789
5806,-0.2590
5807,-0.0797
5808,0.0996
5809,0.1992
5810,0.1793
5811,0.0996
5812,-0.0398
5813,-0.0598
5814,-0.2590
5815,-0.4781
5816,-0.4980
5817,-0.0199
5818,0.2191
5819,0.1992
5820,0.1395
5821,-0.0199
5822,-0.1793
5823,-0.0797
5824,0.1395
5825,0.1195
5826,0.0797
5827,0.0996
5828,0.0797
5829,0.1793
5830,0.2590
5831,0.3586
5832,0.4184
5833,0.3785
5834,0.3188
5835,0.3785
5836,0.2789
5837,0.0996
5838,0.0797
5839,0.1594
5840,0.1195
5841,-0.2789
5842,-0.5777
5843,-0.7371
5844,-0.4383
5845,-0.2191
5846,-0.0797
5847,-0.1793
5848,-0.2590
5849,-0.2789
5850,-0.5777
5851,-0.7770
5852,-0.3387
5853,0.1395
5854,0.3984
5855,0.5180
5856,0.2391
5857,0.2391
5858,0.2590
5859,0.1195
5860,0.1594
5861,0.2191
5862,0.3188
5863,0.2789
5864,0.1992
5865,0.0598
5866,-0.1594
5867,-0.2191
5868,-0.1395
5869,0.0598
5870,0.2391
5871,0.4582
5872,0.4184
5873,0.1195
5874,-0.1195
5875,-0.4383
5876,-1.0160
5877,-1.2352
5878,-0.9563
5879,-0.2789
5880,-0.0797
5881,-0.1594
5882,-0.0797
5883,0.0996
5884,0.1395
5885,0.1195
5886,0.0199
5887,0.0598
5888,0.0398
5889,0.1195
5890,0.3387
5891,0.5180
5892,0.6375
5893,0.3188
5894,-0.1793
5895,-0.4383
5896,-0.3785
5897,-0.1992
5898,0.0797
5899,0.2191
5900,0.4582
5901,0.1992
5902,-0.3984
5903,-0.4781
5904,-0.3188
5905,-0.4383
5906,-0.3785
5907,-0.0996
5908,0.0598
5909,0.2988
5910,0.1395
5911,-0.0398
5912,0.0000
5913,-0.1395
5914,-0.0996
5915,0.2191
5916,0.3188
5917,0.2590
5918,-0.0398
5919,-0.2191
5920,-0.2391
5921,-0.1395
5922,0.2789
5923,0.1793
5924,0.0797
5925,-0.0199
5926,-0.0797
5927,-0.2391
5928,-0.1793
5929,-0.1594
5930,-0.0797
5931,-0.0996
5932,0.0996
5933,0.2391
5934,0.3387
5935,0.5180
5936,0.4184
5937,0.2988
5938,0.3785
5939,-0.0199
5940,-0.1793
5941,-0.1195
5942,-0.1195
5943,-0.2590
5944,-0.2391
5945,-0.1594
5946,-0.0598
5947,0.1395
5948,0.2590
5949,0.1594
5950,-0.1793
5951,-0.3586
5952,-0.2988
5953,-0.1793
5954,-0.0797
5955,-0.1195
5956,-0.3387
5957,-0.2988
5958,-0.1195
5959,0.0000
5960,0.2391
5961,0.4582
5962,0.5578
5963,0.5180
5964,0.3387
5965,0.3387
5966,0.0199
5967,-0.4383
5968,-0.3984
5969,-0.0797
5970,-0.0996
5971,-0.1195
5972,-0.1793
5973,-0.4582
5974,-0.2191
5975,0.0398
5976,0.0996
5977,0.3586
5978,0.4781
5979,0.4980
5980,0.5180
5981,0.5180
5982,0.4582
5983,0.0598
5984,-0.1594
5985,-0.2391
5986,-0.3785
5987,-0.4781
5988,-0.4383
5989,-0.2988
5990,-0.2590
5991,-0.0398
5992,0.2391
5993,0.5180
5994,0.6375
5995,0.7969
5996,0.6574
5997,0.2391
5998,-0.1195
5999,-0.4184
6000,-0.6973
6001,-0.6375
6002,-0.4582
6003,-0.2590
6004,-0.2391
6005,-0.1793
6006,-0.0598
6007,0.0000
6008,0.0598
6009,0.0000
6010,0.2191
6011,0.3984
6012,0.4582
6013,0.0797
6014,-0.0398
6015,-0.3188
6016,-0.2988
6017,-0.2789
6018,-0.2590
6019,-0.1992
6020,-0.1594
6021,-0.2789
6022,-0.3387
6023,-0.1992
6024,-0.0598
6025,0.0199
6026,0.1195
6027,0.2590
6028,0.3586
6029,0.2590
6030,0.3188
6031,0.3785
6032,0.3387
6033,0.2789
6034,0.1793
6035,-0.0598
6036,-0.1594
6037,-0.5578
6038,-0.8367
6039,-0.3188
6040,-0.2191
6041,-0.2789
6042,-0.0398
6043,-0.0598
6044,0.0797
6045,0.0000
6046,-0.1395
6047,-0.2988
6048,-0.0996
6049,-0.0797
6050,-0.1793
6051,-0.0996
6052,-0.3586
6053,-0.2988
6054,-0.0797
6055,0.1395
6056,0.0598
6057,-0.1793
6058,-0.1793
6059,-0.2191
6060,-0.1195
6061,0.2988
6062,0.4980
6063,0.2988
6064,0.0797
6065,-0.2988
6066,-0.6375
6067,-0.6574
6068,-0.3387
6069,-0.2191
6070,-0.0797
6071,0.0000
6072,-0.0598
6073,-0.1992
6074,-0.2191
6075,-0.1395
6076,0.0398
6077,0.1594
6078,0.2391
6079,0.1594
6080,0.2988
6081,0.4184
6082,0.5379
6083,0.3785
6084,0.0996
6085,0.0199
6086,-0.1594
6087,-0.1594
6088,-0.2590
6089,-0.2191
6090,0.1594
6091,0.3387
6092,0.0797
6093,0.0598
6094,-0.1395
6095,-0.4781
6096,-0.4184
6097,-0.4980
6098,-0.3984
6099,-0.2191
6100,-0.1395
6101,0.0398
6102,0.3785
6103,0.4980
6104,0.4184
6105,0.2391
6106,0.1594
6107,0.1395
6108,-0.0797
6109,-0.1793
6110,-0.1992
6111,-0.0996
6112,0.1195
6113,0.0996
6114,0.1195
6115,0.0199
6116,0.0398
6117,0.1594
6118,0.2191
6119,0.2590
6120,0.2391
6121,0.0797
6122,-0.1395
6123,-0.1992
6124,-0.2391
6125,-0.0996
6126,-0.1992
6127,-0.2391
6128,-0.3984
6129,-0.1195
6130,0.1992
6131,0.0797
6132,0.0598
6133,-0.0797
6134,-0.2988
6135,-0.3785
6136,-0.2191
6137,0.1395
6138,0.4383
6139,0.7172
6140,0.7969
6141,0.4184
6142,-0.3188
6143,-0.6375
6144,-0.3188
6145,-0.2391
6146,-0.3188
6147,-0.1395
6148,-0.0398
6149,-0.0398
6150,0.0398
6151,0.0398
6152,-0.1395
6153,-0.4781
6154,0.0398
6155,0.4383
6156,0.3586
6157,0.4582
6158,0.4383
6159,0.3188
6160,0.0996
6161,-0.0598
6162,-0.1793
6163,-0.1793
6164,-0.0199
6165,0.1594
6166,0.3785
6167,0.4582
6168,0.5180
6169,0.2789
6170,0.1195
6171,0.0598
6172,-0.0797
6173,-0.2988
6174,-0.2590
6175,0.2191
6176,0.2391
6177,0.0996
6178,0.2191
6179,-0.1195
6180,-0.3785
6181,0.0598
6182,0.2191
6183,0.3785
6184,0.3984
6185,0.3387
6186,0.1992
6187,-0.1395
6188,-0.2391
6189,-0.0199
6190,-0.0598
6191,0.0199
6192,0.2191
6193,0.2391
6194,0.3188
6195,0.2590
6196,0.0797
6197,0.2191
6198,0.1992
6199,-0.0598
6200,-0.3188
6201,-0.2391
6202,-0.2789
6203,-0.3387
6204,-0.4184
6205,-0.2988
6206,-0.0996
6207,0.0598
6208,0.0398
6209,0.0398
6210,0.0797
6211,0.1793
6212,0.1793
6213,0.1395
6214,0.2988
6215,0.2988
6216,0.0996
6217,-0.0797
6218,-0.0598
6219,-0.3188
6220,-0.4184
6221,-0.3387
6222,-0.1594
6223,0.1395
6224,0.2391
6225,0.2590
6226,0.2590
6227,0.3586
6228,0.3586
6229,0.2789
6230,0.2988
6231,0.3188
6232,0.1992
6233,0.0000
6234,-0.5578
6235,-0.9762
6236,-0.8766
6237,-0.9164
6238,-0.4980
6239,-0.2590
6240,0.0598
6241,0.1594
6242,0.2590
6243,0.3387
6244,0.3984
6245,0.2391
6246,0.1195
6247,0.0797
6248,0.0000
6249,0.1195
6250,0.0797
6251,-0.1793
6252,-0.3785
6253,-0.2988
6254,0.0598
6255,0.1195
6256,0.0398
6257,-0.0598
6258,-0.2590
6259,-0.4781
6260,-0.4980
6261,-0.4980
6262,-0.2789
6263,-0.1195
6264,0.2391
6265,0.4980
6266,0.4781
6267,0.1992
6268,0.0996
6269,-0.1992
6270,-0.1793
6271,-0.3785
6272,-0.4582
6273,-0.2789
6274,-0.2391
6275,-0.2988
6276,-0.5180
6277,-0.0598
6278,0.3188
6279,0.4184
6280,0.3586
6281,0.0797
6282,-0.2789
6283,-0.3387
6284,-0.3188
6285,-0.3586
6286,-0.6375
6287,-0.3984
6288,-0.2391
6289,-0.1992
6290,-0.2789
6291,-0.1594
6292,0.0996
6293,-0.0797
6294,-0.1793
6295,-0.1395
6296,-0.2590
6297,-0.1992
6298,-0.2590
6299,-0.0199
6300,0.1793
6301,0.0996
6302,0.0797
6303,0.0797
6304,0.0996
6305,0.0598
6306,0.0598
6307,0.1395
6308,0.1195
6309,0.1594
6310,0.4781
6311,0.4582
6312,0.5777
6313,0.5180
6314,0.5180
6315,0.2590
6316,-0.2789
6317,-0.5777
6318,-0.6574
6319,-0.6973
6320,-1.0957
6321,-0.8367
6322,-0.2988
6323,-0.1793
6324,-0.2191
6325,-0.0996
6326,0.0000
6327,0.0398
6328,-0.0996
6329,-0.1195
6330,0.0996
6331,0.1793
6332,0.2391
6333,0.2391
6334,0.1793
6335,0.1195
6336,0.0398
6337,-0.0996
6338,-0.0797
6339,-0.2391
6340,-0.1195
6341,0.0996
6342,0.1395
6343,0.2391
6344,0.2191
6345,0.4184
6346,0.8168
6347,0.8965
6348,0.6375
6349,0.4582
6350,0.0000
6351,-0.4184
6352,-0.4980
6353,-0.5977
6354,-0.5379
6355,-0.3188
6356,-0.1195
6357,-0.1992
6358,-0.0797
6359,-0.1395
6360,-0.4582
6361,-0.4582
6362,-0.2391
6363,-0.0996
6364,0.1195
6365,0.4781
6366,0.4184
6367,0.3586
6368,0.2391
6369,0.0000
6370,-0.3188
6371,-0.4781
6372,-0.3188
6373,-0.1594
6374,-0.1793
6375,0.0398
6376,0.1195
6377,0.1793
6378,0.1594
6379,0.1395
6380,0.2988
6381,0.3188
6382,0.0598
6383,0.2590
6384,0.4980
6385,0.3785
6386,0.1195
6387,-0.1992
6388,-0.4980
6389,-0.7172
6390,-0.5180
6391,-0.2988
6392,-0.1395
6393,0.0398
6394,0.2391
6395,0.3387
6396,0.1793
6397,0.0199
6398,-0.0797
6399,-0.1195
6400,-0.0598
6401,-0.0398
6402,0.1793
6403,0.1992
6404,0.2590
6405,0.2391
6406,-0.0199
6407,-0.1195
6408,-0.1594
6409,-0.3586
6410,-0.1395
6411,0.1992
6412,0.3188
6413,0.2191
6414,0.3984
6415,0.4184
6416,0.2391
6417,0.2191
6418,0.0598
6419,0.1992
6420,0.1195
6421,0.0398
6422,0.0398
6423,0.2191
6424,0.4184
6425,0.2391
6426,-0.1793
6427,-0.6973
6428,-0.7969
6429,-0.6773
6430,-0.2391
6431,0.0199
6432,0.1992
6433,0.4582
6434,0.3984
6435,0.2789
6436,0.0398
6437,-0.1992
6438,-0.3188
6439,-0.1195
6440,0.0996
6441,0.1195
6442,0.3188
6443,0.1793
6444,0.0199
6445,0.0996
6446,-0.1992
6447,-0.2590
6448,-0.3984
6449,-0.4781
6450,-0.3984
6451,-0.2391
6452,-0.0398
6453,0.1594
6454,0.4383
6455,0.6375
6456,0.7770
6457,0.6773
6458,0.7371
6459,0.5977
6460,0.4184
6461,0.1992
6462,-0.2191
6463,-0.6375
6464,-1.3746
6465,-1.0160
6466,-0.5977
6467,-0.3785
6468,-0.2391
6469,-0.1793
6470,-0.1594
6471,-0.0797
6472,0.0996
6473,0.1793
6474,0.1793
6475,0.2191
6476,0.1395
6477,0.1992
6478,0.2988
6479,0.2988
6480,0.2391
6481,0.2590
6482,0.1992
6483,0.1195
6484,0.0398
6485,0.1793
6486,0.1594
6487,0.4582
6488,0.7969
6489,0.7969
6490,0.4781
6491,0.1594
6492,-0.4383
6493,-0.6375
6494,-0.4582
6495,-0.0398
6496,0.0000
6497,0.1195
6498,-0.1395
6499,-0.3984
6500,-0.2191
6501,0.1793
6502,0.2590
6503,0.1793
6504,0.0797
6505,-0.0398
6506,-0.0398
6507,-0.2191
6508,-0.0996
6509,0.1195
6510,-0.1395
6511,-0.2590
6512,-0.3188
6513,-0.3387
6514,-0.4980
6515,-0.3984
6516,-0.2789
6517,0.0598
6518,0.3586
6519,0.5977
6520,0.7172
6521,0.6574
6522,0.4184
6523,0.0797
6524,-0.0598
6525,0.1992
6526,0.1793
6527,0.2191
6528,0.0996
6529,-0.2391
6530,-0.2590
6531,-0.0598
6532,-0.2391
6533,-0.1594
6534,-0.1195
6535,-0.0797
6536,0.1992
6537,0.4184
6538,0.5977
6539,0.5777
6540,0.2391
6541,-0.2191
6542,-0.4980
6543,-0.9563
6544,-0.6375
6545,-0.2391
6546,-0.2191
6547,-0.1395
6548,-0.1992
6549,-0.2590
6550,-0.4383
6551,-0.4781
6552,-0.2789
6553,-0.0199
6554,0.3586
6555,0.7371
6556,0.6375
6557,0.3984
6558,0.3188
6559,0.0996
6560,-0.3984
6561,-0.4582
6562,-0.3785
6563,-0.2988
6564,-0.1395
6565,-0.2590
6566,-0.1395
6567,0.1594
6568,0.4383
6569,0.4383
6570,0.4781
6571,0.4980
6572,0.4383
6573,0.3586
6574,0.2191
6575,-0.0398
6576,-0.1594
6577,-0.4781
6578,-0.8367
6579,-0.6176
6580,-0.0598
6581,-0.0398
6582,0.2191
6583,0.4184
6584,0.4383
6585,0.4980
6586,0.4781
6587,0.4980
6588,0.3785
6589,0.2391
6590,-0.0598
6591,-0.0797
6592,-0.3586
6593,-0.4184
6594,-0.1395
6595,0.1992
6596,0.1992
6597,0.0398
6598,0.0000
6599,0.3387
6600,0.4980
6601,0.2789
6602,0.0996
6603,-0.0598
6604,-0.1793
6605,-0.1793
6606,-0.1594
6607,-0.0598
6608,0.0199
6609,-0.1594
6610,-0.2391
6611,-0.3188
6612,-0.1992
6613,0.0398
6614,0.0398
6615,0.0797
6616,0.0000
6617,0.0797
6618,0.1594
6619,0.1395
6620,0.1195
6621,0.1594
6622,0.0996
6623,-0.2191
6624,-0.4781
6625,-0.4184
6626,-0.4781
6627,-0.5777
6628,-0.3387
6629,-0.3387
6630,-0.0797
6631,0.2391
6632,0.2789
6633,0.4184
6634,0.7570
6635,0.8566
6636,0.6574
6637,0.1594
6638,-0.3586
6639,-0.9563
6640,-1.0359
6641,-0.7969
6642,-0.4184
6643,-0.1195
6644,-0.0598
6645,0.1992
6646,0.3586
6647,0.2391
6648,0.3387
6649,0.2391
6650,0.1195
6651,-0.0199
6652,0.0199
6653,-0.0797
6654,-0.1594
6655,0.0598
6656,0.0598
6657,-0.0398
6658,-0.0598
6659,-0.1195
6660,-0.1594
6661,-0.2988
6662,-0.2988
6663,-0.2988
6664,-0.4184
6665,-0.1992
6666,0.0996
6667,0.4184
6668,0.6176
6669,0.6375
6670,0.4781
6671,0.0000
6672,-0.6973
6673,-1.1555
6674,-0.6176
6675,-0.0797
6676,0.0598
6677,0.2191
6678,0.2789
6679,0.1992
6680,0.1195
6681,0.0797
6682,0.1992
6683,0.0996
6684,0.0398
6685,0.0996
6686,0.0398
6687,0.1195
6688,0.2191
6689,0.0797
6690,0.0797
6691,-0.2191
6692,-0.3785
6693,-0.2391
6694,-0.3188
6695,-0.1594
6696,-0.0598
6697,-0.0398
6698,-0.1195
6699,-0.1395
6700,-0.1594
6701,-0.0199
6702,0.1594
6703,0.2590
6704,0.3586
6705,0.3586
6706,0.2191
6707,0.0000
6708,-0.1793
6709,-0.3387
6710,0.0199
6711,0.1992
6712,0.2391
6713,0.1793
6714,-0.1793
6715,-0.0398
6716,0.1594
6717,-0.0797
6718,-0.1992
6719,-0.1793
6720,-0.1395
6721,-0.4184
6722,-0.3586
6723,-0.3984
6724,-0.1793
6725,-0.0199
6726,-0.0996
6727,0.0598
6728,0.1195
6729,0.1395
6730,0.1793
6731,0.1793
6732,0.2988
6733,0.3387
6734,0.2191
6735,0.0797
6736,-0.1793
6737,-0.1395
6738,-0.0199
6739,0.1195
6740,0.2789
6741,0.2391
6742,0.2590
6743,0.1594
6744,-0.0598
6745,-0.2988
6746,-0.4781
6747,0.0199
6748,0.2988
6749,0.1992
6750,0.1992
6751,0.1793
6752,-0.0199
6753,0.0199
6754,-0.0598
6755,-0.1195
6756,-0.0199
6757,-0.0598
6758,0.0199
6759,-0.0598
6760,0.1395
6761,0.4184
6762,0.5379
6763,0.3387
6764,0.1793
6765,-0.3188
6766,-0.4383
6767,-0.5578
6768,-0.6375
6769,-0.7570
6770,-0.4980
6771,-0.1992
6772,-0.1395
6773,0.0199
6774,0.1992
6775,0.2391
6776,0.0996
6777,0.0199
6778,-0.0598
6779,-0.1195
6780,-0.0398
6781,0.0996
6782,0.2789
6783,0.4383
6784,0.4184
6785,0.5977
6786,0.5578
6787,0.3984
6788,0.4184
6789,0.2191
6790,-0.1195
6791,-0.4781
6792,-0.7969
6793,-0.6375
6794,-0.1992
6795,-0.0996
6796,0.0797
6797,0.2590
6798,0.3188
6799,0.1992
6800,-0.0199
6801,-0.3586
6802,-0.0398
6803,0.2391
6804,0.2590
6805,0.1992
6806,-0.1594
6807,-0.2191
6808,-0.2391
6809,-0.2789
6810,-0.2191
6811,-0.3785
6812,-0.2191
6813,-0.1992
6814,-0.2590
6815,-0.2391
6816,-0.0797
6817,0.0996
6818,0.1594
6819,0.2988
6820,0.4383
6821,0.5777
6822,0.6574
6823,0.5578
6824,0.3188
6825,0.1992
6826,0.0199
6827,0.2191
6828,0.0996
6829,0.0996
6830,-0.0398
6831,-0.1195
6832,-0.2391
6833,-0.2391
6834,-0.2789
6835,-0.1793
6836,-0.0199
6837,-0.1195
6838,0.1594
6839,0.3984
6840,0.3586
6841,0.1195
6842,0.0598
6843,-0.1594
6844,-0.3586
6845,-0.2789
6846,0.0000
6847,0.0598
6848,0.0000
6849,-0.0598
6850,-0.0996
6851,-0.1992
6852,-0.1395
6853,-0.0398
6854,-0.0996
6855,-0.0598
6856,-0.0398
6857,0.0797
6858,0.1594
6859,0.1992
6860,0.3387
6861,0.5777
6862,0.6176
6863,0.5379
6864,0.3387
6865,0.0000
6866,-0.4582
6867,-0.8965
6868,-0.6574
6869,-0.6773
6870,-0.3586
6871,-0.2590
6872,0.0996
6873,0.2789
6874,0.2590
6875,0.0598
6876,-0.2391
6877,-0.3984
6878,-0.4184
6879,-0.3785
6880,-0.4383
6881,-0.3586
6882,-0.2789
6883,-0.2391
6884,-0.2191
6885,-0.2391
6886,-0.0199
6887,0.0996
6888,0.0598
6889,0.0199
6890,0.0598
6891,0.1793
6892,0.1395
6893,0.1793
6894,0.1594
6895,0.2988
6896,0.2789
6897,0.1992
6898,-0.0996
6899,-0.0199
6900,0.0000
6901,0.1195
6902,0.0598
6903,-0.0598
6904,-0.1594
6905,-0.3387
6906,-0.4980
6907,-0.6773
6908,-0.6773
6909,-0.6773
6910,-0.4383
6911,-0.3586
6912,-0.1594
6913,-0.0199
6914,0.0996
6915,0.1594
6916,0.0797
6917,0.1395
6918,0.2391
6919,0.3188
6920,0.4184
6921,0.4781
6922,0.3984
6923,0.1793
6924,0.0199
6925,-0.3785
6926,-0.6973
6927,-0.4383
6928,-0.3586
6929,-0.6176
6930,-0.2191
6931,-0.0398
6932,-0.0996
6933,-0.0797
6934,-0.1992
6935,-0.2988
6936,-0.1395
6937,-0.0398
6938,0.0797
6939,0.3586
6940,0.4582
6941,0.6176
6942,0.6773
6943,0.4184
6944,0.0598
6945,0.1594
6946,0.0199
6947,-0.1195
6948,-0.0996
6949,-0.1793
6950,-0.0398
6951,0.1195
6952,0.1195
6953,0.1793
6954,0.3387
6955,0.5977
6956,0.8965
6957,0.7570
6958,0.1793
6959,-0.2988
6960,-0.3984
6961,-0.7371
6962,-0.5578
6963,-0.3586
6964,-0.2789
6965,-0.1992
6966,0.0199
6967,0.1793
6968,0.2789
6969,0.2391
6970,0.2988
6971,0.1992
6972,0.1793
6973,0.0996
6974,0.0598
6975,0.0996
6976,0.0797
6977,-0.0199
6978,-0.1992
6979,-0.2191
6980,-0.3188
6981,-0.1195
6982,0.0797
6983,0.0598
6984,0.1594
6985,0.1195
6986,0.0797
6987,-0.0199
6988,-0.0996
6989,-0.1594
6990,-0.2391
6991,-0.0598
6992,-0.1793
6993,-0.3586
6994,-0.3984
6995,-0.4781
6996,-0.2191
6997,-0.0797
6998,-0.0398
6999,0.1395
7000,0.3188
7001,0.2789
7002,0.2391
7003,0.2789
7004,0.4184
7005,0.2988
7006,0.0000
7007,-0.1992
7008,-0.1594
7009,-0.4383
7010,-0.3387
7011,-0.2988
7012,-0.1793
7013,0.1793
7014,0.4582
7015,0.4582
7016,0.3785
7017,0.3188
7018,0.3387
7019,0.2590
7020,0.1395
7021,0.2988
7022,0.1992
7023,-0.0598
7024,-0.4781
7025,-0.8168
7026,-0.7371
7027,-0.4980
7028,-0.2391
7029,-0.0398
7030,0.1594
7031,0.1195
7032,0.0797
7033,0.0199
7034,-0.1793
7035,-0.4582
7036,-0.1594
7037,0.1395
7038,0.1992
7039,0.1992
7040,0.1195
7041,0.2191
7042,0.2789
7043,0.2191
7044,0.3387
7045,0.3984
7046,0.4582
7047,0.6375
7048,0.5578
7049,0.4582
7050,0.1395
7051,-0.2988
7052,-0.6176
7053,-0.2590
7054,-0.1195
7055,-0.0199
7056,0.0000
7057,0.0996
7058,0.1793
7059,0.0996
7060,-0.1594
7061,0.1395
7062,0.2590
7063,0.3188
7064,0.3984
7065,0.4781
7066,0.2191
7067,0.0996
7068,0.0996
7069,0.0598
7070,0.0000
7071,-0.4980
7072,-0.6176
7073,-0.5977
7074,-0.4582
7075,-0.0797
7076,0.0996
7077,0.0398
7078,-0.1195
7079,-0.1395
7080,-0.1793
7081,-0.0996
7082,0.1992
7083,0.3785
7084,0.4582
7085,0.3387
7086,0.2988
7087,0.3387
7088,0.3586
7089,0.1395
7090,-0.2988
7091,-0.4582
7092,-0.7969
7093,-0.9961
7094,-0.8566
7095,-0.6773
7096,-0.4781
7097,-0.4184
7098,-0.3387
7099,-0.1594
7100,-0.0598
7101,-0.0797
7102,0.0398
7103,0.0398
7104,0.0199
7105,-0.0598
7106,-0.2988
7107,-0.3387
7108,-0.3586
7109,-0.1793
7110,-0.0996
7111,-0.0598
7112,-0.0797
7113,-0.0996
7114,-0.0199
7115,-0.0598
7116,-0.1395
7117,0.0598
7118,0.0199
7119,-0.0398
7120,-0.2590
7121,-0.3586
7122,-0.4980
7123,-0.3586
7124,-0.2391
7125,-0.0797
7126,0.0398
7127,0.4980
7128,0.5777
7129,0.6574
7130,0.5977
7131,0.2191
7132,-0.1195
7133,-0.5777
7134,-0.2789
7135,-0.3188
7136,-0.2988
7137,-0.3387
7138,-0.1594
7139,-0.2789
7140,-0.0398
7141,0.1395
7142,0.2789
7143,0.2789
7144,0.3387
7145,0.3785
7146,0.3188
7147,0.2391
7148,0.0199
7149,-0.1195
7150,-0.3387
7151,-0.0398
7152,0.0398
7153,-0.0398
7154,0.1195
7155,0.2191
7156,0.1594
7157,0.1395
7158,0.1195
7159,0.2191
7160,0.0996
7161,0.0598
7162,0.1195
7163,0.2590
7164,0.2590
7165,0.1793
7166,0.1195
7167,0.0797
7168,-0.1594
7169,0.0199
7170,0.0996
7171,0.0000
7172,-0.0996
7173,-0.0199
7174,0.0598
7175,0.1992
7176,0.2191
7177,0.1395
7178,0.0598
7179,0.1793
7180,0.1195
7181,0.0797
7182,0.0000
7183,-0.0996
7184,-0.0996
7185,-0.3188
7186,0.0000
7187,0.3188
7188,0.3188
7189,0.4781
7190,0.6574
7191,0.4781
7192,0.3586
7193,0.2391
7194,0.2391
7195,0.3387
7196,0.3387
7197,0.2191
7198,0.0996
7199,-0.1594
7200,-0.3984
7201,-0.4980
7202,-0.4184
7203,-0.3387
7204,-0.2590
7205,-0.3387
7206,-0.2590
7207,-0.0598
7208,0.0000
7209,0.0000
7210,0.0199
7211,0.0398
7212,-0.1395
7213,-0.3188
7214,-0.2988
7215,-0.1395
7216,-0.0199
7217,0.1992
7218,0.2590
7219,0.1195
7220,-0.0398
7221,-0.4980
7222,-0.3188
7223,0.0199
7224,-0.0996
7225,-0.0797
7226,0.0996
7227,0.1992
7228,0.3586
7229,0.2391
7230,0.0000
7231,-0.1992
7232,-0.4184
7233,-0.5180
7234,-0.4582
7235,-0.4980
7236,-0.3785
7237,-0.0996
7238,0.0000
7239,0.1195
7240,0.1793
7241,0.1195
7242,0.1793
7243,0.1195
7244,0.0398
7245,0.1395
7246,0.1195
7247,0.2391
7248,0.2789
7249,0.4383
7250,0.3586
7251,0.3188
7252,0.1992
7253,-0.4582
7254,-0.5777
7255,-0.4781
7256,-0.6176
7257,-0.5777
7258,-0.3586
7259,-0.5379
7260,-0.3586
7261,-0.3188
7262,-0.3387
7263,-0.2590
7264,-0.1992
7265,-0.1395
7266,-0.1793
7267,-0.0598
7268,0.0000
7269,0.0199
7270,0.1395
7271,0.2391
7272,0.2988
7273,0.1195
7274,0.2391
7275,0.4184
7276,0.3785
7277,0.3387
7278,0.2789
7279,0.3188
7280,0.2988
7281,-0.1395
7282,-0.3586
7283,-0.6574
7284,-1.1355
7285,-1.0559
7286,-0.8965
7287,-0.5977
7288,-0.3188
7289,-0.3984
7290,-0.4383
7291,-0.4383
7292,-0.3785
7293,-0.2789
7294,-0.1594
7295,-0.0996
7296,-0.0996
7297,0.0000
7298,0.0000
7299,0.0000
7300,-0.0797
7301,-0.1992
7302,-0.1793
7303,-0.2590
7304,-0.2590
7305,-0.1992
7306,-0.0199
7307,0.1992
7308,0.4582
7309,0.5977
7310,0.4980
7311,0.1395
7312,-0.4184
7313,-0.4980
7314,-0.2590
7315,-0.1992
7316,0.0199
7317,0.4383
7318,0.3586
7319,0.3188
7320,0.0797
7321,-0.3387
7322,-0.5977
7323,-0.5777
7324,-0.6574
7325,-0.4184
7326,-0.2988
7327,-0.1395
7328,-0.1195
7329,-0.0598
7330,0.0996
7331,0.1195
7332,-0.0797
7333,-0.2191
7334,0.0199
7335,0.1793
7336,-0.0598
7337,-0.1195
7338,-0.1793
7339,-0.1395
7340,-0.2191
7341,-0.1195
7342,-0.2391
7343,-0.0398
7344,0.1395
7345,0.0199
7346,0.0199
7347,0.2191
7348,0.2789
7349,0.2988
7350,0.2590
7351,0.0996
7352,0.0598
7353,0.0996
7354,-0.0996
7355,0.0797
7356,0.2590
7357,0.2988
7358,0.0398
7359,-0.0797
7360,0.0797
7361,0.0199
7362,0.0598
7363,-0.0996
7364,-0.0996
7365,-0.2391
7366,-0.4781
7367,-0.2391
7368,-0.0199
7369,-0.0598
7370,-0.0398
7371,0.0000
7372,0.1395
7373,0.1195
7374,0.1992
7375,0.0398
7376,-0.1195
7377,-0.3188
7378,-0.3785
7379,-0.3387
7380,-0.4582
7381,-0.3188
7382,-0.0398
7383,0.0797
7384,-0.0598
7385,-0.2789
7386,-0.3387
7387,-0.0398
7388,0.2391
7389,0.3188
7390,0.4781
7391,0.5379
7392,0.3785
7393,0.1992
7394,0.1195
7395,-0.1594
7396,-0.2590
7397,-0.0398
7398,0.0199
7399,0.0398
7400,0.0996
7401,0.1195
7402,0.0398
7403,-0.0398
7404,-0.0398
7405,-0.1395
7406,-0.1395
7407,-0.1793
7408,0.0797
7409,0.1793
7410,0.2391
7411,0.0797
7412,-0.0598
7413,-0.1594
7414,-0.2391
7415,-0.2191
7416,0.0199
7417,0.1594
7418,0.1594
7419,-0.0598
7420,0.0398
7421,0.2191
7422,0.2391
7423,0.2590
7424,0.3188
7425,0.1594
7426,-0.0398
7427,-0.0996
7428,0.1395
7429,0.0598
7430,0.0199
7431,0.0000
7432,-0.0797
7433,-0.1992
7434,-0.2391
7435,0.0199
7436,0.0000
7437,-0.0199
7438,0.1992
7439,0.2391
7440,0.2191
7441,0.2191
7442,0.0996
7443,-0.0598
7444,-0.0598
7445,-0.3188
7446,-0.3984
7447,-0.1594
7448,0.0797
7449,0.0598
7450,-0.1793
7451,-0.1992
7452,-0.0598
7453,0.1395
7454,0.2590
7455,0.3387
7456,0.2191
7457,0.0996
7458,-0.1195
7459,-0.3785
7460,0.0598
7461,0.1395
7462,0.0797
7463,-0.0598
7464,-0.1395
7465,-0.2191
7466,-0.2789
7467,-0.0199
7468,0.0996
7469,0.0199
7470,-0.1992
7471,-0.2391
7472,-0.1992
7473,-0.1395
7474,-0.1594
7475,0.1195
7476,0.2590
7477,0.3984
7478,0.4980
7479,0.5578
7480,0.3785
7481,-0.0598
7482,-0.3785
7483,-0.4781
7484,-0.4980
7485,-0.3586
7486,-0.1793
7487,-0.2391
7488,-0.1992
7489,0.0797
7490,0.0797
7491,0.0797
7492,0.1395
7493,0.2391
7494,0.1992
7495,0.1195
7496,-0.0199
7497,-0.1395
7498,-0.0598
7499,-0.0996
7500,0.0996
7501,0.4383
7502,0.6574
7503,0.7172
7504,0.5777
7505,0.3188
7506,-0.0398
7507,-0.1992
7508,-0.3188
7509,-0.5180
7510,-0.3188
7511,0.1594
7512,0.3785
7513,0.4980
7514,0.4383
7515,0.2988
7516,0.1395
7517,-0.3188
7518,-0.9563
7519,-0.8566
7520,-0.7371
7521,-0.4383
7522,-0.1395
7523,0.0996
7524,0.1793
7525,0.2988
7526,0.2988
7527,0.1195
7528,0.0797
7529,-0.0598
7530,-0.0996
7531,-0.0598
7532,-0.0797
7533,-0.1793
7534,-0.1992
7535,-0.3387
7536,-0.2391
7537,-0.0797
7538,-0.0199
7539,0.0797
7540,0.2191
7541,0.3785
7542,0.2191
7543,0.2391
7544,0.0598
7545,-0.0797
7546,-0.2391
7547,-0.3586
7548,-0.2391
7549,-0.1395
7550,0.0797
7551,0.2191
7552,0.2988
7553,0.3188
7554,0.3188
7555,0.5578
7556,0.5578
7557,0.3785
7558,0.0199
7559,-0.2590
7560,-0.0598
7561,-0.1195
7562,-0.1594
7563,-0.1395
7564,-0.2590
7565,-0.1793
7566,-0.1594
7567,-0.2988
7568,-0.5578
7569,-0.2988
7570,-0.0797
7571,-0.0598
7572,0.1992
7573,0.3387
7574,0.4383
7575,0.4980
7576,0.4781
7577,0.4383
7578,0.2391
7579,0.1594
7580,0.0598
7581,-0.0398
7582,0.0598
7583,0.2391
7584,0.2191
7585,0.2789
7586,0.0598
7587,-0.0199
7588,-0.0996
7589,-0.1793
7590,-0.1594
7591,0.0000
7592,0.0797
7593,0.1992
7594,0.4980
7595,0.6973
7596,0.5379
7597,0.0398
7598,-0.2391
7599,-0.4582
7600,-0.8168
7601,-0.3387
7602,0.0398
7603,0.1195
7604,0.3387
7605,0.4781
7606,0.5777
7607,0.5777
7608,0.4184
7609,0.2191
7610,-0.0797
7611,-0.3387
7612,-0.4582
7613,-0.4383
7614,-0.3984
7615,-0.2590
7616,-0.2391
7617,-0.0598
7618,-0.0598
7619,-0.1395
7620,-0.0398
7621,0.0000
7622,0.0598
7623,0.1594
7624,0.3188
7625,0.6574
7626,0.8367
7627,0.7172
7628,0.4184
7629,-0.0797
7630,-0.5777
7631,-0.3785
7632,0.1195
7633,0.1992
7634,0.3188
7635,0.2789
7636,-0.0797
7637,-0.4781
7638,-0.5180
7639,-0.6773
7640,-0.6375
7641,-0.0996
7642,0.2191
7643,0.1395
7644,-0.0598
7645,-0.2789
7646,-0.5180
7647,-0.6176
7648,-0.7172
7649,-0.3387
7650,-0.0996
7651,-0.0598
7652,-0.1195
7653,-0.1594
7654,-0.2191
7655,-0.2191
7656,-0.1195
7657,-0.0598
7658,0.0199
7659,0.0598
7660,0.1395
7661,0.1594
7662,0.2789
7663,0.2988
7664,0.1793
7665,-0.0598
7666,-0.2789
7667,-0.2789
7668,-0.4184
7669,-0.6574
7670,-0.6574
7671,-0.6176
7672,-0.1195
7673,0.2191
7674,0.3785
7675,0.4184
7676,0.3785
7677,0.1195
7678,0.0398
7679,-0.4383
7680,-0.5977
7681,-0.3586
7682,-0.2391
7683,-0.4184
7684,-0.1395
7685,0.0797
7686,-0.0598
7687,-0.1395
7688,-0.2191
7689,0.0199
7690,0.2191
7691,0.0598
7692,-0.1793
7693,-0.4383
7694,-0.2191
7695,-0.0797
7696,-0.1992
7697,-0.0199
7698,0.0199
7699,0.0398
7700,0.1195
7701,0.2590
7702,0.1992
7703,-0.0398
7704,-0.0398
7705,-0.2988
7706,-0.4781
7707,-0.5578
7708,-0.4184
7709,0.0000
7710,0.1793
7711,0.1195
7712,0.2590
7713,0.2191
7714,0.0199
7715,-0.0199
7716,-0.0398
7717,0.1195
7718,0.1594
7719,-0.0996
7720,-0.1395
7721,-0.3387
7722,-0.2988
7723,-0.3188
7724,-0.3387
7725,-0.1793
7726,-0.1793
7727,-0.0398
7728,0.0398
7729,0.1195
7730,0.1594
7731,0.0996
7732,0.0598
7733,0.0598
7734,0.0398
7735,0.2391
7736,0.1594
7737,0.0598
7738,0.2191
7739,0.1594
7740,0.1395
7741,0.3984
7742,0.1594
7743,-0.0598
7744,-0.1594
7745,-0.3387
7746,-0.2988
7747,-0.2590
7748,-0.0996
7749,-0.0398
7750,0.1594
7751,-0.0598
7752,-0.2391
7753,-0.2590
7754,-0.3387
7755,0.1793
7756,0.3984
7757,0.2191
7758,0.2988
7759,0.1195
7760,-0.1594
7761,-0.2988
7762,-0.6375
7763,-0.4184
7764,-0.1195
7765,-0.1395
7766,-0.2590
7767,-0.3984
7768,-0.4781
7769,-0.3984
7770,-0.1992
7771,-0.0797
7772,0.0598
7773,0.1195
7774,0.2391
7775,0.3387
7776,0.3984
7777,0.2789
7778,0.1594
7779,0.3785
7780,0.4582
7781,0.3785
7782,0.2988
7783,0.1793
7784,-0.1992
7785,-0.2789
7786,-0.2191
7787,-0.3387
7788,-0.4582
7789,-0.2590
7790,0.0199
7791,0.1395
7792,0.1195
7793,0.0000
7794,-0.0797
7795,-0.2191
7796,-0.0199
7797,-0.0797
7798,-0.2191
7799,-0.0996
7800,0.0996
7801,0.0199
7802,0.0598
7803,0.0598
7804,0.0398
7805,-0.0797
7806,-0.0598
7807,0.2789
7808,0.3586
7809,0.2391
7810,0.0398
7811,-0.0398
7812,-0.2391
7813,0.0598
7814,0.0598
7815,-0.0398
7816,0.0000
7817,0.0598
7818,0.1992
7819,0.1395
7820,0.0797
7821,0.3387
7822,0.5180
7823,0.3387
7824,0.2391
7825,0.2988
7826,0.0398
7827,0.2789
7828,0.4582
7829,0.2191
7830,0.1195
7831,-0.3188
7832,-0.3387
7833,-0.0398
7834,-0.0797
7835,-0.1992
7836,-0.0398
7837,-0.0199
7838,0.0398
7839,0.2191
7840,0.3984
7841,0.3984
7842,0.3586
7843,0.2988
7844,0.3188
7845,0.4781
7846,0.5777
7847,0.5977
7848,0.7172
7849,0.3984
7850,-0.2391
7851,-0.6973
7852,-1.1754
7853,-0.8566
7854,-0.5379
7855,-0.2191
7856,-0.0398
7857,0.1594
7858,0.2391
7859,0.1395
7860,-0.0598
7861,-0.1195
7862,0.1195
7863,0.3188
7864,0.3387
7865,0.2590
7866,0.0598
7867,-0.0797
7868,-0.2988
7869,-0.3984
7870,-0.1992
7871,-0.1195
7872,-0.1793
7873,-0.0797
7874,0.1395
7875,0.2988
7876,0.2988
7877,0.2590
7878,0.2590
7879,0.1395
7880,-0.0996
7881,-0.4383
7882,-0.2391
7883,-0.0199
7884,0.3984
7885,0.5977
7886,0.6176
7887,0.2191
7888,-0.0199
7889,-0.7371
7890,-0.5777
7891,-0.0398
7892,0.1195
7893,0.1793
7894,0.1793
7895,0.1395
7896,0.0000
7897,-0.0398
7898,0.1195
7899,-0.1594
7900,-0.2988
7901,-0.1793
7902,-0.2789
7903,-0.2789
7904,-0.3387
7905,-0.2191
7906,-0.0598
7907,-0.0797
7908,0.3188
7909,0.3586
7910,0.1992
7911,0.0598
7912,-0.0199
7913,-0.0398
7914,-0.0797
7915,-0.0797
7916,-0.1195
7917,0.0398
7918,-0.0797
7919,-0.0598
7920,-0.0996
7921,-0.1195
7922,-0.0996
7923,0.1195
7924,0.2789
7925,0.1793
7926,-0.1195
7927,-0.2191
7928,-0.2191
7929,-0.3586
7930,-0.5180
7931,-0.2590
7932,-0.0996
7933,-0.1992
7934,-0.1594
7935,-0.0199
7936,0.0000
7937,-0.1395
7938,-0.2988
7939,-0.1793
7940,0.0598
7941,0.1992
7942,0.1594
7943,0.1395
7944,0.0598
7945,0.1992
7946,0.2789
7947,0.2789
7948,0.3188
7949,-0.0398
7950,-0.0398
7951,-0.0199
7952,-0.1395
7953,-0.2191
7954,-0.3188
7955,-0.2191
7956,-0.1992
7957,-0.2988
7958,-0.0996
7959,-0.2590
7960,-0.1395
7961,-0.1793
7962,-0.1395
7963,-0.1395
7964,-0.0199
7965,0.0996
7966,0.2191
7967,0.2391
7968,0.1992
7969,0.2191
7970,0.2590
7971,0.3984
7972,0.3984
7973,0.4184
7974,0.4383
7975,0.3984
7976,0.2590
7977,-0.0996
7978,-0.2191
7979,-0.0797
7980,-0.0598
7981,-0.0199
7982,0.0398
7983,0.0000
7984,0.0398
7985,0.1594
7986,0.1395
7987,0.0000
7988,0.0000
7989,0.1594
7990,0.3387
7991,0.2191
7992,0.0199
7993,-0.1594
7994,-0.3984
7995,-0.2988
7996,-0.1195
7997,0.1195
7998,0.2391
7999,0.2391
8000,0.3188
8001,0.2191
8002,-0.0398
8003,-0.3785
8004,-0.3984
8005,-0.3785
8006,-0.3785
8007,-0.2988
8008,-0.1594
8009,0.0398
8010,0.1992
8011,0.1793
8012,0.2191
8013,-0.0398
8014,-0.2391
8015,-0.4383
8016,-0.4184
8017,-0.1793
8018,-0.0199
8019,0.1594
8020,0.3188
8021,0.3586
8022,0.3188
8023,0.4184
8024,0.3586
8025,0.1992
8026,0.0000
8027,-0.2789
8028,-0.2391
8029,-0.3785
8030,-0.4582
8031,-0.2191
8032,0.1992
8033,0.3785
8034,0.5578
8035,0.6773
8036,0.8168
8037,0.8367
8038,0.9363
8039,0.7371
8040,0.5180
8041,-0.1395
8042,-0.5379
8043,-0.8566
8044,-0.7371
8045,-0.3387
8046,-0.1793
8047,0.1594
8048,0.1992
8049,-0.0398
8050,-0.2391
8051,-0.3387
8052,-0.4781
8053,-0.2590
8054,0.1195
8055,0.2391
8056,0.5180
8057,0.7570
8058,0.7172
8059,0.6375
8060,0.4980
8061,0.2391
8062,0.0598
8063,-0.0598
8064,-0.1395
8065,0.1594
8066,0.3387
8067,0.3984
8068,0.1793
8069,0.2789
8070,0.3188
8071,0.3984
8072,0.5578
8073,0.5379
8074,0.5379
8075,0.4781
8076,0.3387
8077,0.1395
8078,-0.0797
8079,-0.3586
8080,-0.1395
8081,0.1395
8082,0.2789
8083,0.0797
8084,0.1793
8085,0.2988
8086,0.2590
8087,0.1594
8088,0.0996
8089,0.0598
8090,-0.1395
8091,-0.2191
8092,-0.0199
8093,-0.1594
8094,-0.0199
8095,0.0000
8096,0.0199
8097,-0.0199
8098,-0.2988
8099,-0.4383
8100,-0.2789
8101,-0.2988
8102,-0.2391
8103,-0.2191
8104,-0.2391
8105,-0.2988
8106,-0.2789
8107,-0.3387
8108,-0.1594
8109,0.1395
8110,0.1992
8111,0.2988
8112,0.3984
8113,0.3188
8114,0.3188
8115,0.3387
8116,0.1793
8117,0.0000
8118,-0.0996
8119,-0.3785
8120,-0.6574
8121,-0.9762
8122,-0.7172
8123,-0.4184
8124,-0.2988
8125,-0.2590
8126,-0.2391
8127,-0.2590
8128,-0.0996
8129,0.1195
8130,0.0199
8131,0.0996
8132,-0.0199
8133,-0.1793
8134,-0.2789
8135,-0.2590
8136,-0.0797
8137,-0.0996
8138,0.0398
8139,0.1395
8140,0.2590
8141,0.3586
8142,0.2988
8143,0.2391
8144,0.1395
8145,-0.1195
8146,-0.3387
8147,-0.5379
8148,-0.4980
8149,-0.5578
8150,-0.3387
8151,0.1594
8152,0.4582
8153,0.4383
8154,0.2789
8155,0.2789
8156,0.3984
8157,0.3188
8158,0.6574
8159,0.5777
8160,0.0996
8161,-0.3586
8162,-0.9762
8163,-1.0160
8164,-0.6973
8165,-0.9961
8166,-0.7570
8167,-0.4383
8168,-0.2391
8169,-0.0996
8170,-0.0996
8171,-0.0996
8172,0.0000
8173,0.1195
8174,0.1793
8175,0.2191
8176,0.2590
8177,0.2391
8178,0.2391
8179,0.0996
8180,0.0000
8181,-0.1793
8182,-0.1793
8183,-0.3785
8184,-0.4184
8185,-0.3188
8186,-0.1594
8187,-0.1594
8188,0.0000
8189,0.3984
8190,0.7969
8191,1.0160
8192,1.2551
8193,0.9563
8194,0.3785
8195,-0.3387
8196,-0.8367
8197,-0.3984
8198,-0.2590
8199,-0.2590
8200,-0.1594
8201,0.1594
8202,0.3387
8203,0.6176
8204,0.5977
8205,0.3785
8206,0.0199
8207,-0.0398
8208,-0.2191
8209,-0.4582
8210,-0.4582
8211,-0.5379
8212,-0.5379
8213,-0.3387
8214,-0.2988
8215,-0.0996
8216,0.0199
8217,0.0000
8218,0.0398
8219,-0.0598
8220,0.0000
8221,0.0398
8222,0.0398
8223,-0.0398
8224,0.0797
8225,0.1793
8226,0.1395
8227,0.0598
8228,0.2391
8229,0.3586
8230,0.2191
8231,0.0199
8232,-0.2789
8233,-0.2391
8234,0.0000
8235,-0.0199
8236,0.0797
8237,0.0797
8238,0.0199
8239,-0.2391
8240,-0.4184
8241,-0.6375
8242,-0.3984
8243,-0.1195
8244,-0.0398
8245,0.0598
8246,0.2988
8247,0.3387
8248,0.0996
8249,-0.0996
8250,-0.0199
8251,0.0598
8252,-0.0199
8253,-0.2191
8254,-0.4781
8255,-0.3984
8256,-0.2988
8257,-0.3387
8258,-0.3586
8259,0.0000
8260,0.2988
8261,0.6973
8262,0.8766
8263,0.6773
8264,0.3785
8265,0.0199
8266,-0.1992
8267,-0.4582
8268,-0.6773
8269,-0.8766
8270,-0.8965
8271,-0.5180
8272,-0.2191
8273,-0.0797
8274,-0.0996
8275,0.2191
8276,0.1992
8277,0.2391
8278,0.1594
8279,0.0598
8280,-0.1395
8281,-0.2391
8282,-0.2988
8283,-0.2789
8284,-0.1395
8285,0.0398
8286,0.2789
8287,0.4383
8288,0.3586
8289,0.1195
8290,-0.3984
8291,-0.6574
8292,-0.8766
8293,-0.9363
8294,-0.4184
8295,-0.1992
8296,-0.0996
8297,-0.0199
8298,0.0996
8299,0.1992
8300,0.1992
8301,0.0996
8302,-0.0598
8303,-0.2391
8304,-0.3387
8305,-0.3188
8306,-0.4184
8307,-0.0797
8308,0.1195
8309,0.2590
8310,0.2590
8311,0.0598
8312,0.1793
8313,0.1395
8314,-0.0598
8315,-0.2590
8316,-0.3188
8317,-0.3785
8318,-0.0996
8319,-0.0598
8320,-0.1395
8321,-0.2590
8322,-0.1594
8323,-0.0598
8324,0.0199
8325,0.0199
8326,-0.0199
8327,-0.0199
8328,-0.0199
8329,0.0199
8330,0.0996
8331,0.1195
8332,0.6176
8333,1.0559
8334,1.3148
8335,1.3746
8336,1.0559
8337,0.4383
8338,-0.3984
8339,-0.9961
8340,-0.7770
8341,-0.2789
8342,-0.1793
8343,0.0000
8344,0.1395
8345,0.3387
8346,0.2191
8347,0.0598
8348,0.0598
8349,0.1395
8350,0.2391
8351,0.1195
8352,-0.0398
8353,-0.0398
8354,0.0000
8355,0.3387
8356,0.7172
8357,1.0758
8358,1.4543
8359,1.2949
8360,0.8168
8361,0.0996
8362,-0.5977
8363,-1.4543
8364,-1.8328
8365,-1.3547
8366,-1.2949
8367,-1.1555
8368,-0.8367
8369,-0.5379
8370,-0.2988
8371,-0.1395
8372,-0.1195
8373,-0.1594
8374,-0.2590
8375,-0.2988
8376,-0.1992
8377,-0.0199
8378,0.3387
8379,0.6973
8380,1.0559
8381,0.9363
8382,0.5777
8383,0.2988
8384,-0.1594
8385,-0.1195
8386,-0.1793
8387,-0.1992
8388,0.0000
8389,-0.0398
8390,-0.1395
8391,-0.1195
8392,-0.0996
8393,0.1195
8394,-0.0996
8395,0.1395
8396,0.3785
8397,0.1992
8398,-0.1395
8399,-0.3586
8400,-0.3387
8401,-0.3387
8402,-0.8367
8403,-0.6574
8404,-0.3785
8405,-0.1395
8406,-0.0797
8407,0.1594
8408,0.3586
8409,0.3785
8410,0.3785
8411,0.4781
8412,0.5578
8413,0.2191
8414,0.1195
8415,0.1793
8416,0.2988
8417,0.3387
8418,0.1195
8419,-0.0996
8420,-0.4184
8421,-0.7371
8422,-0.7172
8423,-0.6973
8424,-0.3785
8425,-0.0797
8426,-0.1395
8427,-0.1594
8428,0.2789
8429,0.7371
8430,1.1156
8431,1.2551
8432,1.0359
8433,0.4781
8434,-0.4184
8435,-1.2750
8436,-0.9563
8437,-0.8168
8438,-0.5977
8439,-0.5379
8440,-0.4184
8441,-0.4383
8442,-0.1594
8443,-0.1195
8444,-0.0199
8445,0.0199
8446,0.0996
8447,0.1395
8448,0.0996
8449,-0.0199
8450,-0.0398
8451,0.0598
8452,0.0598
8453,0.3785
8454,0.5977
8455,0.5578
8456,0.1594
8457,-0.0996
8458,-0.4383
8459,-0.8168
8460,-0.5180
8461,-0.2789
8462,-0.2789
8463,-0.0797
8464,0.1195
8465,0.2789
8466,0.2590
8467,0.1395
8468,0.3586
8469,0.3984
8470,0.4184
8471,0.2590
8472,0.0996
8473,0.2191
8474,-0.1395
8475,-0.7570
8476,-0.6574
8477,-0.5578
8478,-0.4582
8479,-0.2988
8480,-0.3785
8481,-0.3188
8482,-0.1395
8483,0.0000
8484,0.1594
8485,0.2191
8486,0.3785
8487,0.3586
8488,0.2988
8489,0.4184
8490,0.3188
8491,0.3984
8492,0.4184
8493,0.3387
8494,0.5578
8495,0.6773
8496,0.7371
8497,0.6973
8498,0.3785
8499,0.0598
8500,-0.0996
8501,-0.3387
8502,-0.1594
8503,-0.2391
8504,-0.0598
8505,0.1793
8506,0.1793
8507,0.2789
8508,0.1395
8509,-0.2789
8510,-0.2590
8511,-0.1395
8512,-0.0398
8513,-0.0199
8514,0.0199
8515,0.2391
8516,0.3387
8517,0.4582
8518,0.4184
8519,0.4383
8520,0.3586
8521,0.4582
8522,0.3984
8523,0.0996
8524,-0.0199
8525,-0.0996
8526,-0.2191
8527,-0.4383
8528,-0.4184
8529,-0.6375
8530,-0.8766
8531,-0.7570
8532,-0.5180
8533,-0.2391
8534,0.0398
8535,0.1793
8536,0.3984
8537,0.6574
8538,0.5977
8539,0.5578
8540,0.2191
8541,-0.1992
8542,-0.2590
8543,-0.2988
8544,-0.2391
8545,-0.2988
8546,-0.3586
8547,-0.3586
8548,-0.2191
8549,0.1195
8550,0.3586
8551,0.4781
8552,0.4582
8553,0.4781
8554,0.3984
8555,0.1594
8556,-0.0797
8557,-0.3387
8558,-0.2988
8559,0.0398
8560,-0.0199
8561,-0.3387
8562,-0.3387
8563,-0.0199
8564,-0.0996
8565,-0.1195
8566,0.1395
8567,0.1395
8568,0.0996
8569,0.0797
8570,0.1793
8571,0.1793
8572,0.1594
8573,0.0797
8574,0.4582
8575,0.3785
8576,0.0598
8577,-0.1992
8578,-0.1793
8579,-0.5578
8580,-0.6176
8581,-0.2988
8582,-0.2191
8583,-0.0996
8584,-0.0199
8585,0.1395
8586,0.2988
8587,0.1395
8588,0.0598
8589,-0.2391
8590,-0.6176
8591,-0.7570
8592,-0.7969
8593,-0.3586
8594,-0.1395
8595,0.0199
8596,0.1395
8597,0.2590
8598,0.2988
8599,0.1594
8600,0.1594
8601,0.1395
8602,-0.0598
8603,-0.0797
8604,-0.0398
8605,-0.2191
8606,-0.4383
8607,-0.3188
8608,0.0398
8609,0.0398
8610,0.3188
8611,0.4781
8612,0.4383
8613,0.5180
8614,0.4184
8615,0.1594
8616,0.3785
8617,0.4582
8618,0.1395
8619,-0.2590
8620,-0.1793
8621,-0.3586
8622,-0.3785
8623,-0.3984
8624,-0.3984
8625,-0.4781
8626,-0.5180
8627,-0.2988
8628,0.0398
8629,0.3387
8630,0.3785
8631,0.4383
8632,0.3785
8633,0.1793
8634,0.0199
8635,-0.1793
8636,-0.2988
8637,-0.2590
8638,-0.2590
8639,-0.1793
8640,0.0797
8641,0.1992
8642,0.3785
8643,0.4582
8644,0.5578
8645,0.7172
8646,0.5777
8647,0.6176
8648,0.4184
8649,0.0598
8650,-0.1793
8651,-0.7770
8652,-1.0160
8653,-0.8766
8654,-0.3387
8655,-0.1395
8656,-0.0598
8657,0.0398
8658,0.2590
8659,0.2988
8660,0.2988
8661,0.1594
8662,0.1594
8663,0.1195
8664,-0.1594
8665,-0.3387
8666,-0.2988
8667,-0.4980
8668,-0.4582
8669,-0.3188
8670,-0.2391
8671,-0.0797
8672,-0.0398
8673,-0.0199
8674,0.0598
8675,0.2191
8676,0.2789
8677,0.3387
8678,0.2988
8679,0.2789
8680,0.1195
8681,-0.1594
8682,-0.2789
8683,-0.1395
8684,-0.3984
8685,-0.3984
8686,-0.3188
8687,-0.3586
8688,-0.3984
8689,-0.4383
8690,-0.3188
8691,-0.1395
8692,0.1395
8693,0.3188
8694,0.3188
8695,0.1992
8696,0.0000
8697,-0.1793
8698,-0.2590
8699,-0.2988
8700,-0.1195
8701,-0.2391
8702,-0.2590
8703,-0.3984
8704,-0.5379
8705,-0.4582
8706,-0.4383
8707,-0.4582
8708,-0.3984
8709,-0.4781
8710,-0.4781
8711,-0.4383
8712,-0.4781
8713,-0.4184
8714,-0.3188
8715,-0.1395
8716,-0.0996
8717,0.0199
8718,0.0797
8719,0.1195
8720,0.2391
8721,0.1594
8722,0.1594
8723,0.3785
8724,0.4383
8725,0.2988
8726,0.0000
8727,-0.3188
8728,-0.6773
8729,-0.7172
8730,-0.3785
8731,-0.2391
8732,-0.0996
8733,0.1594
8734,0.1395
8735,0.1992
8736,-0.0398
8737,-0.1395
8738,-0.2988
8739,-0.5578
8740,-0.4582
8741,-0.3785
8742,-0.3785
8743,0.0996
8744,0.3984
8745,0.3387
8746,0.3387
8747,0.2191
8748,-0.0398
8749,-0.3785
8750,-0.5180
8751,-0.4582
8752,-0.3984
8753,-0.3586
8754,-0.3586
8755,-0.2391
8756,0.0000
8757,0.1793
8758,0.3785
8759,0.4383
8760,0.4184
8761,0.4781
8762,0.5180
8763,0.5578
8764,0.6973
8765,0.6574
8766,0.5180
8767,0.6176
8768,0.4582
8769,0.2988
8770,0.0996
8771,-0.0398
8772,-0.0598
8773,-0.3785
8774,-0.6773
8775,-0.4582
8776,-0.3586
8777,-0.2191
8778,0.0598
8779,0.2391
8780,0.3785
8781,0.5777
8782,0.7770
8783,0.7371
8784,0.6973
8785,0.5578
8786,0.4184
8787,0.2789
8788,0.0000
8789,0.0199
8790,0.0598
8791,0.1195
8792,0.1594
8793,0.1195
8794,0.1395
8795,0.2789
8796,0.3586
8797,0.4781
8798,0.5379
8799,0.3188
8800,-0.0797
8801,0.0398
8802,-0.0398
8803,-0.4980
8804,-0.5379
8805,-0.3785
8806,-0.0996
8807,-0.0797
8808,-0.0398
8809,0.0000
8810,0.0996
8811,0.0797
8812,0.0996
8813,0.1594
8814,0.3188
8815,0.1594
8816,0.0398
8817,-0.0398
8818,-0.1395
8819,-0.1195
8820,0.0598
8821,0.0996
8822,-0.1195
8823,-0.2988
8824,-0.3785
8825,-0.3387
8826,-0.3586
8827,-0.1195
8828,0.1195
8829,0.1195
8830,0.1594
8831,0.0996
8832,-0.0199
8833,0.0000
8834,-0.0398
8835,-0.0996
8836,-0.2391
8837,-0.2789
8838,-0.0797
8839,0.0398
8840,0.0797
8841,0.0996
8842,0.2590
8843,0.2789
8844,0.1195
8845,0.2191
8846,0.3387
8847,0.4980
8848,0.6375
8849,0.5578
8850,0.2988
8851,-0.0996
8852,-0.6375
8853,-0.9164
8854,-0.7172
8855,-0.5180
8856,-0.3188
8857,-0.0398
8858,0.1395
8859,0.1992
8860,0.3387
8861,0.2590
8862,0.1395
8863,0.0000
8864,-0.0199
8865,-0.0598
8866,-0.1395
8867,0.0000
8868,0.1594
8869,0.1395
8870,0.0199
8871,-0.1195
8872,0.0598
8873,0.1793
8874,0.2191
8875,0.2391
8876,0.1594
8877,0.1195
8878,-0.0398
8879,-0.0996
8880,-0.0797
8881,-0.0797
8882,-0.0797
8883,0.0000
8884,-0.0398
8885,-0.0797
8886,-0.0199
8887,0.0996
8888,0.1395
8889,0.3586
8890,0.3785
8891,0.3387
8892,0.1793
8893,0.0996
8894,0.2391
8895,0.4184
8896,0.3387
8897,0.0199
8898,0.0000
8899,-0.4582
8900,-0.4980
8901,-0.2590
8902,-0.3188
8903,-0.2590
8904,-0.3984
8905,-0.2988
8906,-0.1395
8907,-0.0398
8908,0.0797
8909,0.0797
8910,0.1395
8911,0.1195
8912,0.2191
8913,0.2191
8914,0.1793
8915,-0.0199
8916,-0.1594
8917,-0.2191
8918,0.0398
8919,0.1594
8920,0.1992
8921,0.3785
8922,0.5777
8923,0.7172
8924,0.7172
8925,0.5379
8926,0.0598
8927,-0.3387
8928,-0.8367
8929,-0.6773
8930,-0.2391
8931,-0.1992
8932,-0.0598
8933,0.2191
8934,0.3785
8935,0.4184
8936,0.3188
8937,0.2988
8938,0.2789
8939,0.3188
8940,0.2988
8941,0.3188
8942,0.3188
8943,0.2789
8944,0.1395
8945,0.0598
8946,-0.0598
8947,-0.2191
8948,-0.1793
8949,0.0797
8950,0.0000
8951,-0.1594
8952,-0.3387
8953,-0.6773
8954,-0.3984
8955,-0.3586
8956,-0.4383
8957,-0.5578
8958,-0.6375
8959,-0.6574
8960,-0.2988
8961,-0.0797
8962,0.0398
8963,0.0000
8964,0.0000
8965,-0.0598
8966,-0.0797
8967,-0.0598
8968,-0.1195
8969,0.0598
8970,0.1195
8971,0.2391
8972,0.3188
8973,0.2191
8974,0.1195
8975,0.0996
8976,0.0398
8977,-0.1793
8978,-0.4383
8979,-0.5777
8980,-0.4781
8981,-0.4980
8982,-0.3984
8983,-0.0598
8984,0.2789
8985,0.3785
8986,0.3984
8987,0.2789
8988,0.1195
8989,-0.1793
8990,-0.1594
8991,-0.0199
8992,-0.0996
8993,-0.1793
8994,0.0797
8995,0.1793
8996,0.0598
8997,-0.1793
8998,-0.3984
8999,-0.4582
9000,-0.3387
9001,-0.0797
9002,-0.1395
9003,-0.2191
9004,-0.2191
9005,-0.2191
9006,-0.0797
9007,-0.1395
9008,0.0000
9009,0.1793
9010,0.3387
9011,0.3586
9012,0.2391
9013,0.1195
9014,0.1395
9015,0.0996
9016,0.0398
9017,0.0398
9018,-0.0398
9019,0.0598
9020,0.0797
9021,-0.0797
9022,0.1195
9023,0.2988
9024,0.2789
9025,0.4184
9026,0.2590
9027,0.2191
9028,0.0199
9029,-0.0199
9030,-0.0598
9031,-0.1195
9032,0.0199
9033,0.1992
9034,0.4781
9035,0.6375
9036,0.5777
9037,0.5379
9038,0.2789
9039,-0.1793
9040,-0.2789
9041,-0.3586
9042,-0.3586
9043,-0.4582
9044,-0.0996
9045,0.0797
9046,0.2191
9047,0.1793
9048,0.0398
9049,-0.0797
9050,-0.2789
9051,-0.5578
9052,-0.5379
9053,-0.4781
9054,-0.1594
9055,0.2391
9056,0.5578
9057,0.5977
9058,0.6176
9059,0.3387
9060,-0.0797
9061,-0.5777
9062,-0.4383
9063,-0.2988
9064,-0.1793
9065,-0.2988
9066,-0.2988
9067,-0.3387
9068,-0.2590
9069,-0.0398
9070,0.0797
9071,0.1594
9072,0.1992
9073,0.2590
9074,0.2590
9075,0.3188
9076,0.3387
9077,0.1395
9078,-0.2191
9079,-0.4781
9080,-0.5379
9081,-0.5777
9082,-0.5977
9083,-0.5977
9084,-0.4582
9085,-0.2191
9086,-0.2590
9087,-0.3785
9088,-0.1992
9089,-0.1195
9090,-0.0598
9091,0.0000
9092,0.1594
9093,0.3188
9094,0.4980
9095,0.5777
9096,0.6773
9097,0.6973
9098,0.6973
9099,0.4383
9100,0.0598
9101,-0.2191
9102,-0.4781
9103,-0.5977
9104,-0.4582
9105,-0.4980
9106,-0.3785
9107,-0.0398
9108,0.0199
9109,-0.0598
9110,-0.0797
9111,-0.2988
9112,-0.4781
9113,-0.4980
9114,-0.3785
9115,-0.1793
9116,-0.0199
9117,0.0598
9118,0.1395
9119,-0.0598
9120,0.0996
9121,0.1594
9122,0.2191
9123,0.1992
9124,0.0797
9125,0.1195
9126,0.0797
9127,0.0598
9128,-0.0598
9129,-0.0398
9130,-0.0598
9131,-0.1195
9132,-0.1395
9133,-0.1594
9134,0.1395
9135,0.1793
9136,0.0199
9137,-0.0797
9138,-0.1395
9139,-0.2988
9140,-0.2590
9141,-0.4184
9142,-0.4383
9143,-0.4781
9144,-0.3984
9145,-0.1395
9146,0.0199
9147,0.1195
9148,0.1395
9149,0.0398
9150,-0.0199
9151,0.0598
9152,0.1992
9153,0.0797
9154,0.1195
9155,-0.1195
9156,-0.3188
9157,-0.2191
9158,-0.2789
9159,-0.4582
9160,-0.1793
9161,0.0797
9162,0.1594
9163,0.0000
9164,0.1395
9165,0.2590
9166,0.2590
9167,0.2391
9168,0.2191
9169,0.0199
9170,-0.3586
9171,-0.6375
9172,-0.6176
9173,-0.4980
9174,-0.3984
9175,0.0398
9176,0.2988
9177,0.2590
9178,0.2789
9179,0.1992
9180,0.1395
9181,0.1793
9182,0.1594
9183,0.1395
9184,0.1395
9185,0.0598
9186,-0.2988
9187,-0.2789
9188,-0.2789
9189,-0.1395
9190,0.1793
9191,0.3785
9192,0.5180
9193,0.5180
9194,0.5977
9195,0.7172
9196,0.5578
9197,0.3785
9198,0.0398
9199,-0.1793
9200,-0.4781
9201,-0.7172
9202,-0.5777
9203,-0.2391
9204,-0.0199
9205,0.1195
9206,0.1992
9207,0.1395
9208,-0.0199
9209,-0.2789
9210,-0.3984
9211,-0.3586
9212,-0.1594
9213,-0.0398
9214,-0.0199
9215,-0.0797
9216,0.0398
9217,0.0797
9218,0.0996
9219,0.1195
9220,0.1992
9221,0.3188
9222,0.3387
9223,0.2988
9224,0.2191
9225,0.0398
9226,0.0000
9227,-0.1594
9228,-0.3188
9229,-0.2391
9230,-0.2789
9231,-0.2988
9232,-0.1195
9233,0.1195
9234,0.2789
9235,0.3984
9236,0.3387
9237,0.3785
9238,0.3188
9239,0.1395
9240,0.0797
9241,-0.3188
9242,-0.3586
9243,-0.2988
9244,-0.2391
9245,-0.0598
9246,0.1195
9247,0.2988
9248,0.3188
9249,0.4582
9250,0.5180
9251,0.2988
9252,0.0199
9253,-0.2789
9254,-0.4781
9255,-0.2391
9256,-0.3188
9257,-0.4980
9258,-0.7371
9259,-0.4980
9260,-0.3785
9261,-0.5180
9262,-0.6176
9263,-0.5379
9264,-0.1992
9265,0.1195
9266,0.1793
9267,0.2391
9268,0.3188
9269,0.2590
9270,0.1395
9271,0.1195
9272,0.0797
9273,0.0199
9274,-0.0398
9275,0.1594
9276,0.2391
9277,0.1594
9278,0.0000
9279,-0.0996
9280,-0.2191
9281,-0.1793
9282,-0.2988
9283,-0.3785
9284,-0.2988
9285,-0.0996
9286,0.0000
9287,0.0996
9288,0.2391
9289,0.3785
9290,0.4383
9291,0.2988
9292,0.1594
9293,0.0996
9294,-0.3984
9295,-0.8566
9296,-0.6574
9297,-0.5977
9298,-0.9164
9299,-0.7969
9300,-0.2988
9301,-0.1195
9302,0.1395
9303,0.4383
9304,0.5578
9305,0.5977
9306,0.6375
9307,0.4980
9308,0.2590
9309,-0.0199
9310,-0.3387
9311,-0.6973
9312,-0.7969
9313,-0.6773
9314,-0.2789
9315,-0.1594
9316,0.1195
9317,0.1992
9318,0.2391
9319,0.1594
9320,0.1594
9321,0.0398
9322,0.0598
9323,0.1395
9324,0.2191
9325,0.2590
9326,0.1793
9327,0.2590
9328,0.2191
9329,0.2191
9330,0.1793
9331,0.1395
9332,0.2191
9333,0.0598
9334,-0.0598
9335,-0.2191
9336,-0.1793
9337,-0.2988
9338,-0.2789
9339,0.0199
9340,0.0598
9341,0.1992
9342,0.3984
9343,0.4980
9344,0.6773
9345,0.7570
9346,0.7172
9347,0.6973
9348,0.4980
9349,0.0398
9350,0.0398
9351,-0.1195
9352,-0.1793
9353,-0.5977
9354,-0.6973
9355,-0.5777
9356,-0.7570
9357,-0.4582
9358,-0.0797
9359,0.0797
9360,0.0398
9361,0.1594
9362,0.2988
9363,0.3984
9364,0.4582
9365,0.3586
9366,0.3387
9367,0.1992
9368,0.2391
9369,0.0996
9370,0.0797
9371,-0.0199
9372,-0.1195
9373,-0.1195
9374,-0.0598
9375,-0.1992
9376,-0.1395
9377,-0.0398
9378,-0.0797
9379,-0.1793
9380,-0.3188
9381,-0.1395
9382,0.0199
9383,0.1793
9384,0.1395
9385,0.2191
9386,0.5379
9387,0.6973
9388,0.7570
9389,0.5977
9390,0.1395
9391,-0.4184
9392,-0.9164
9393,-1.1555
9394,-0.4383
9395,-0.3586
9396,-0.0797
9397,0.2789
9398,0.2988
9399,0.0996
9400,-0.2191
9401,-0.5578
9402,-0.7969
9403,-0.8566
9404,-0.7172
9405,-0.5777
9406,-0.4781
9407,-0.1992
9408,0.0398
9409,0.1395
9410,0.2590
9411,0.2191
9412,0.3188
9413,0.2988
9414,0.2590
9415,0.2391
9416,0.1594
9417,0.1594
9418,0.1195
9419,0.1594
9420,0.0797
9421,0.0199
9422,-0.0398
9423,-0.2391
9424,-0.4383
9425,-0.6375
9426,-0.3387
9427,-0.2391
9428,-0.3188
9429,-0.2988
9430,-0.1594
9431,-0.0398
9432,0.0000
9433,0.0598
9434,0.0598
9435,0.0398
9436,0.0598
9437,0.1195
9438,0.1793
9439,0.2590
9440,0.2988
9441,0.3785
9442,0.5379
9443,0.4582
9444,0.5180
9445,0.3785
9446,0.2590
9447,0.1594
9448,0.0598
9449,-0.1395
9450,-0.2191
9451,-0.2590
9452,-0.0797
9453,0.0996
9454,0.2391
9455,0.2590
9456,0.2988
9457,0.1594
9458,-0.1992
9459,-0.2590
9460,-0.1594
9461,-0.2191
9462,-0.2391
9463,-0.0398
9464,-0.0398
9465,0.0199
9466,0.1395
9467,0.2988
9468,0.4184
9469,0.5977
9470,0.5180
9471,0.3387
9472,0.2391
9473,-0.2191
9474,-0.2590
9475,-0.0199
9476,0.0199
9477,0.0797
9478,0.0598
9479,0.3188
9480,0.1793
9481,0.1992
9482,0.1594
9483,-0.2789
9484,-0.4781
9485,-0.5777
9486,-0.4184
9487,-0.1793
9488,-0.1793
9489,-0.2191
9490,-0.1992
9491,-0.1594
9492,0.0398
9493,0.1992
9494,0.2191
9495,0.1992
9496,0.1793
9497,0.1594
9498,0.1395
9499,0.1992
9500,0.1793
9501,0.0797
9502,0.0797
9503,0.0199
9504,-0.0797
9505,-0.1793
9506,-0.1395
9507,-0.0199
9508,0.0199
9509,-0.0398
9510,0.1395
9511,0.3984
9512,0.5777
9513,0.5379
9514,0.4781
9515,0.2988
9516,-0.1793
9517,-0.5379
9518,-0.6176
9519,-0.3586
9520,0.0000
9521,0.0398
9522,-0.0199
9523,-0.0199
9524,-0.0797
9525,-0.1594
9526,0.0598
9527,0.0199
9528,-0.0398
9529,-0.0996
9530,-0.0797
9531,-0.0398
9532,-0.0797
9533,-0.1395
9534,0.0797
9535,0.1992
9536,0.1793
9537,0.1395
9538,0.0000
9539,0.0398
9540,0.3387
9541,0.2590
9542,0.0996
9543,-0.1395
9544,-0.4980
9545,-0.6574
9546,-0.5379
9547,-0.4781
9548,-0.4184
9549,-0.4383
9550,-0.2789
9551,-0.2590
9552,-0.2191
9553,-0.1395
9554,-0.1195
9555,0.0199
9556,0.0000
9557,-0.0398
9558,-0.1793
9559,-0.2590
9560,-0.1195
9561,-0.1195
9562,0.0000
9563,0.1793
9564,0.0797
9565,-0.0598
9566,-0.3984
9567,-0.0996
9568,0.1594
9569,0.0598
9570,-0.0398
9571,-0.0996
9572,-0.1594
9573,-0.0598
9574,0.0996
9575,0.1992
9576,0.1594
9577,0.0797
9578,0.0797
9579,0.1395
9580,0.2590
9581,0.1395
9582,-0.0398
9583,-0.3387
9584,-0.3984
9585,-0.2191
9586,-0.1594
9587,-0.0598
9588,-0.0398
9589,-0.0398
9590,-0.1195
9591,-0.3188
9592,-0.4980
9593,-0.3387
9594,-0.0996
9595,0.0797
9596,0.3188
9597,0.5777
9598,0.6973
9599,0.9762
9600,1.1355
9601,0.9363
9602,0.5379
9603,0.0199
9604,-0.1395
9605,0.0996
9606,-0.2789
9607,-0.9363
9608,-0.9961
9609,-0.3188
9610,-0.0398
9611,0.0398
9612,-0.1395
9613,-0.2391
9614,-0.3188
9615,-0.3387
9616,-0.2590
9617,0.0797
9618,0.2590
9619,0.3387
9620,0.3984
9621,0.2391
9622,0.0000
9623,-0.2391
9624,-0.2391
9625,-0.4781
9626,-0.4582
9627,-0.0996
9628,0.1195
9629,0.2391
9630,0.3188
9631,0.2590
9632,0.3586
9633,0.2988
9634,-0.0996
9635,-0.3387
9636,-0.5977
9637,-0.3984
9638,-0.0996
9639,-0.2789
9640,-0.3188
9641,-0.1793
9642,-0.0199
9643,-0.0199
9644,-0.0797
9645,-0.1195
9646,-0.0797
9647,-0.1195
9648,-0.0797
9649,0.0797
9650,0.1992
9651,0.0000
9652,0.3387
9653,0.5379
9654,0.5777
9655,0.6973
9656,0.5379
9657,0.3785
9658,0.2590
9659,0.0000
9660,-0.5180
9661,-0.6973
9662,-0.5977
9663,-0.6574
9664,-0.5180
9665,-0.1793
9666,0.0797
9667,0.0598
9668,0.1395
9669,0.4383
9670,0.5977
9671,0.4980
9672,0.3188
9673,-0.0398
9674,-0.2391
9675,-0.0598
9676,0.0000
9677,0.0797
9678,0.2590
9679,0.4184
9680,0.5977
9681,0.5578
9682,0.4383
9683,0.1594
9684,-0.1594
9685,-0.3586
9686,-0.1992
9687,-0.2988
9688,-0.4184
9689,-0.2590
9690,0.0598
9691,0.2988
9692,0.3188
9693,0.0000
