Time (s),Kanaal 1
0,0.0797
1,0.0398
2,0.0996
3,0.0996
4,0.1195
5,0.0598
6,0.0398
7,0.0996
8,0.0000
9,-0.0199
10,0.0398
11,0.0598
12,0.0797
13,0.0598
14,0.0398
15,0.0797
16,0.0199
17,0.0797
18,0.0598
19,0.0598
20,0.0000
21,0.0797
22,0.0598
23,0.0598
24,0.0598
25,0.0996
26,0.1195
27,0.1195
28,0.0996
29,0.1195
30,0.0598
31,0.0797
32,0.0598
33,0.0398
34,0.0598
35,0.0598
36,0.0199
37,0.0398
38,0.0398
39,0.0199
40,0.0398
41,-0.0199
42,0.0199
43,-0.0598
44,-0.0598
45,-0.0398
46,-0.0996
47,-0.0797
48,0.0000
49,-0.0398
50,0.0000
51,0.0398
52,0.0598
53,0.0199
54,0.0797
55,0.0000
56,-0.0398
57,0.0000
58,-0.0199
59,-0.0199
60,0.0199
61,0.0000
62,0.0199
63,-0.0199
64,0.0797
65,0.0000
66,0.0000
67,-0.0398
68,-0.0398
69,0.0398
70,0.0000
71,0.0199
72,0.0398
73,0.0000
74,0.0000
75,0.0000
76,-0.0199
77,0.0000
78,-0.0598
79,-0.0199
80,-0.0797
81,-0.0199
82,0.0199
83,0.0000
84,0.0199
85,0.0598
86,0.0797
87,0.0797
88,0.1195
89,0.0996
90,0.1395
91,0.0598
92,0.0996
93,0.0797
94,0.0199
95,0.0000
96,0.0000
97,0.0000
98,0.0598
99,0.0000
100,0.0598
101,0.0000
102,0.0398
103,-0.0598
104,-0.0598
105,-0.0598
106,-0.0797
107,0.0000
108,-0.0598
109,-0.1395
110,-0.0996
111,-0.1395
112,-0.0598
113,-0.1594
114,-0.0996
115,-0.1395
116,-0.1594
117,-0.1594
118,-0.1793
119,-0.1594
120,-0.1195
121,-0.1793
122,-0.1395
123,-0.1793
124,-0.1992
125,-0.1594
126,-0.1395
127,-0.1395
128,-0.0598
129,-0.0598
130,-0.0199
131,0.0199
132,0.0598
133,-0.0598
134,-0.0199
135,0.0000
136,-0.0598
137,0.0000
138,0.0000
139,0.0000
140,0.0199
141,0.0598
142,0.0598
143,0.0598
144,0.0199
145,0.0598
146,0.0797
147,0.0598
148,0.0199
149,-0.0199
150,-0.0598
151,-0.0598
152,-0.0199
153,-0.0598
154,-0.0598
155,-0.0996
156,-0.0598
157,-0.0598
158,-0.0199
159,-0.0199
160,0.0199
161,-0.0598
162,-0.0199
163,0.0000
164,0.0199
165,-0.0199
166,-0.0797
167,-0.1395
168,-0.1594
169,-0.1793
170,-0.1793
171,-0.1793
172,-0.0398
173,-0.1195
174,-0.1195
175,-0.0996
176,-0.1594
177,-0.1594
178,-0.0996
179,-0.0996
180,-0.1195
181,-0.1195
182,-0.0797
183,-0.1594
184,-0.0598
185,-0.0996
186,-0.0797
187,-0.0598
188,-0.0797
189,-0.0398
190,-0.0996
191,-0.0996
192,-0.0398
193,-0.0797
194,-0.0598
195,-0.0996
196,-0.1195
197,-0.1395
198,-0.1395
199,-0.0598
200,-0.0797
201,-0.0598
202,-0.0598
203,-0.0797
204,-0.0797
205,-0.0797
206,-0.0598
207,-0.0199
208,-0.0199
209,-0.0199
210,0.0199
211,-0.0199
212,0.0199
213,0.0398
214,0.0000
215,0.0000
216,0.0000
217,0.0398
218,0.0598
219,0.0797
220,0.0797
221,0.0996
222,0.0797
223,0.0398
224,0.1395
225,0.0996
226,0.0797
227,0.1395
228,0.1195
229,0.1395
230,0.2191
231,0.1992
232,0.1793
233,0.1395
234,0.1793
235,0.1793
236,0.1594
237,0.1594
238,0.1594
239,0.0996
240,0.0598
241,0.0398
242,0.0598
243,0.0199
244,0.0000
245,0.0000
246,-0.0199
247,-0.0398
248,-0.0797
249,-0.0797
250,-0.0598
251,-0.0398
252,0.0199
253,0.0199
254,0.0000
255,0.0199
256,-0.0199
257,-0.0996
258,-0.0598
259,-0.1195
260,-0.1195
261,-0.0996
262,-0.1395
263,-0.1195
264,-0.0797
265,-0.0797
266,-0.0797
267,-0.0598
268,-0.0996
269,-0.1195
270,-0.1395
271,-0.0996
272,-0.0398
273,-0.0398
274,-0.0398
275,-0.0398
276,-0.0598
277,-0.0398
278,0.0000
279,0.0000
280,0.0199
281,0.0000
282,0.0598
283,0.0199
284,0.0797
285,0.0797
286,0.0996
287,0.0996
288,0.0598
289,0.0398
290,0.0199
291,0.0398
292,0.0996
293,0.0797
294,0.0996
295,0.0996
296,0.1594
297,0.1793
298,0.1395
299,0.1793
300,0.1195
301,0.1395
302,0.1594
303,0.1594
304,0.2391
305,0.2391
306,0.1992
307,0.2191
308,0.2191
309,0.1793
310,0.1395
311,0.0598
312,0.0797
313,0.0797
314,0.0996
315,0.0996
316,0.0996
317,0.0996
318,0.0398
319,0.0000
320,0.0398
321,-0.0199
322,-0.0996
323,-0.0598
324,-0.0199
325,0.0797
326,0.0199
327,0.0199
328,-0.0199
329,0.0398
330,0.0199
331,0.0000
332,0.0398
333,0.0199
334,0.0398
335,0.0398
336,0.0199
337,-0.0598
338,-0.0598
339,-0.0598
340,-0.0398
341,-0.1195
342,-0.0996
343,-0.2191
344,-0.1594
345,-0.1594
346,-0.1395
347,-0.0797
348,-0.0996
349,-0.1395
350,-0.1594
351,-0.1594
352,-0.1594
353,-0.1992
354,-0.1992
355,-0.1195
356,-0.0797
357,-0.1195
358,-0.1195
359,-0.0996
360,-0.0797
361,-0.0797
362,-0.1395
363,-0.0797
364,-0.1395
365,-0.1992
366,-0.1594
367,-0.0598
368,-0.1395
369,-0.1395
370,-0.0598
371,-0.0797
372,-0.0598
373,-0.0797
374,-0.0398
375,-0.0797
376,-0.0996
377,-0.0797
378,-0.0797
379,-0.1195
380,-0.1195
381,-0.0598
382,-0.0398
383,0.0000
384,-0.0797
385,0.0199
386,-0.0199
387,0.0199
388,0.0199
389,-0.0398
390,0.0000
391,-0.0598
392,-0.0199
393,-0.0199
394,0.0398
395,0.0199
396,0.0398
397,0.0598
398,0.0797
399,0.0199
400,0.0598
401,0.0797
402,0.1395
403,0.0797
404,0.0199
405,0.0398
406,-0.0199
407,0.0199
408,-0.0199
409,0.0598
410,0.0598
411,0.0797
412,0.0996
413,0.0000
414,0.0996
415,0.0199
416,-0.0199
417,-0.0199
418,-0.0398
419,-0.0398
420,-0.0199
421,-0.0199
422,0.0000
423,-0.0398
424,-0.0398
425,-0.0199
426,0.0199
427,0.0199
428,0.0398
429,-0.0199
430,-0.0199
431,-0.0598
432,-0.0996
433,-0.0797
434,-0.1395
435,0.0000
436,0.0199
437,0.0398
438,0.0996
439,0.0797
440,0.0797
441,0.0598
442,-0.0398
443,-0.0996
444,-0.0996
445,-0.1195
446,-0.0996
447,-0.0598
448,-0.0398
449,0.0000
450,0.0199
451,0.0000
452,-0.0398
453,0.0000
454,0.0199
455,-0.0398
456,-0.0398
457,-0.0199
458,-0.0797
459,-0.0398
460,0.0000
461,-0.0398
462,0.0797
463,0.0996
464,0.0797
465,0.1793
466,0.1793
467,0.1594
468,0.1395
469,0.0199
470,-0.0398
471,-0.0797
472,-0.2590
473,-0.3188
474,-0.3984
475,-0.3387
476,-0.2988
477,-0.1793
478,-0.1395
479,-0.1395
480,-0.0797
481,-0.0797
482,-0.0797
483,-0.0598
484,-0.0598
485,-0.0598
486,-0.0398
487,-0.0199
488,-0.0598
489,-0.0398
490,0.0000
491,0.0000
492,0.0000
493,0.0199
494,-0.0797
495,-0.0996
496,-0.0996
497,-0.0797
498,-0.0996
499,-0.0598
500,0.0000
501,-0.0797
502,-0.0199
503,-0.0598
504,-0.0598
505,-0.0199
506,-0.1195
507,-0.0598
508,-0.0598
509,-0.0199
510,0.0598
511,0.0000
512,0.0996
513,0.0797
514,0.0398
515,0.0398
516,0.0598
517,0.0398
518,0.0797
519,0.0598
520,0.0598
521,0.0000
522,-0.0199
523,-0.0598
524,-0.0598
525,0.0199
526,0.0000
527,0.0000
528,-0.0398
529,0.0000
530,-0.0199
531,-0.0199
532,0.0598
533,-0.0598
534,-0.0398
535,-0.1195
536,-0.1395
537,-0.0797
538,-0.0598
539,-0.0598
540,-0.0398
541,-0.0199
542,-0.0398
543,0.0000
544,0.0000
545,0.0000
546,0.0199
547,0.0398
548,0.0797
549,0.0797
550,0.0598
551,-0.0199
552,0.0398
553,0.0000
554,0.1195
555,0.1594
556,0.0996
557,0.1395
558,0.0996
559,0.0598
560,0.0797
561,0.0797
562,0.0797
563,0.0797
564,0.1195
565,0.1395
566,0.1195
567,0.1594
568,0.1793
569,0.1793
570,0.1594
571,0.0996
572,0.1395
573,0.1195
574,0.0797
575,0.1195
576,0.1195
577,0.0797
578,0.0199
579,0.0598
580,0.0797
581,0.0398
582,0.0797
583,0.0598
584,0.0398
585,0.0598
586,0.0199
587,0.0797
588,0.0598
589,0.0996
590,0.0398
591,0.0398
592,0.0598
593,0.0398
594,0.0996
595,0.0598
596,0.0598
597,0.0797
598,0.0598
599,0.0996
600,0.0797
601,0.1195
602,0.0996
603,0.1195
604,0.1594
605,0.1195
606,0.1395
607,0.1195
608,0.1395
609,0.0996
610,0.0797
611,0.1195
612,0.0996
613,0.0996
614,0.0199
615,0.0996
616,0.1594
617,0.0797
618,-0.0199
619,-0.0398
620,0.0000
621,0.0000
622,-0.0398
623,0.0199
624,0.0598
625,0.1594
626,0.0797
627,0.0598
628,0.1195
629,0.0996
630,0.0398
631,0.0000
632,0.0000
633,0.0398
634,0.0000
635,0.0398
636,0.0199
637,0.0598
638,0.0398
639,0.1195
640,0.0797
641,0.0398
642,0.0797
643,0.0000
644,0.0000
645,-0.0199
646,0.0000
647,0.0199
648,0.0000
649,0.0000
650,-0.0598
651,0.0199
652,-0.0398
653,-0.0598
654,-0.0797
655,-0.0398
656,-0.0598
657,-0.0199
658,-0.0398
659,-0.0398
660,-0.0199
661,-0.0598
662,0.0199
663,0.0000
664,0.0000
665,0.0000
666,-0.0199
667,0.0398
668,0.0000
669,-0.0398
670,-0.0398
671,0.0000
672,0.0199
673,0.0199
674,0.0398
675,0.0598
676,0.0996
677,0.0996
678,0.1195
679,0.1195
680,0.0996
681,0.0996
682,0.0797
683,0.0996
684,0.0598
685,0.0996
686,0.0398
687,0.0398
688,-0.0598
689,-0.0398
690,-0.0996
691,-0.0598
692,-0.1395
693,-0.1793
694,-0.1395
695,-0.1395
696,-0.1793
697,-0.1793
698,-0.0398
699,-0.0199
700,0.0398
701,0.1195
702,0.1195
703,0.0797
704,0.0000
705,0.0000
706,0.0398
707,0.0797
708,0.0398
709,0.1195
710,0.1195
711,0.0199
712,0.0000
713,0.0000
714,0.1395
715,0.0996
716,0.0797
717,0.0996
718,0.1195
719,0.1793
720,0.1195
721,0.0996
722,0.0996
723,0.1395
724,0.0996
725,0.0797
726,0.0398
727,0.0000
728,0.0000
729,0.0199
730,0.0398
731,-0.0199
732,0.0199
733,-0.0996
734,-0.1195
735,-0.0797
736,0.0398
737,0.0398
738,-0.0398
739,0.0598
740,0.0598
741,0.0598
742,0.0398
743,0.0598
744,0.0199
745,0.0000
746,-0.0398
747,-0.0598
748,-0.0398
749,-0.0199
750,0.0000
751,0.1195
752,0.0797
753,0.0199
754,0.0000
755,-0.0199
756,-0.0996
757,-0.1395
758,-0.0797
759,-0.0598
760,-0.1395
761,-0.0996
762,0.0000
763,-0.0199
764,-0.0398
765,-0.0797
766,-0.1992
767,-0.1594
768,-0.1793
769,-0.2191
770,-0.1992
771,-0.1594
772,-0.1594
773,-0.1395
774,-0.1195
775,-0.0996
776,-0.1395
777,-0.1793
778,-0.2191
779,-0.1594
780,-0.1395
781,-0.0797
782,-0.0996
783,-0.0398
784,0.0398
785,0.0996
786,0.0996
787,0.0199
788,-0.0598
789,-0.0996
790,-0.1793
791,-0.2191
792,-0.1594
793,-0.1195
794,-0.1793
795,-0.1395
796,-0.1195
797,-0.0398
798,-0.0199
799,-0.0398
800,-0.1195
801,-0.1594
802,-0.1195
803,-0.1992
804,-0.2789
805,-0.1992
806,-0.0199
807,0.1395
808,0.0598
809,0.0598
810,0.0598
811,0.0598
812,-0.0199
813,-0.1594
814,-0.1793
815,-0.1195
816,-0.1395
817,-0.0398
818,0.0598
819,-0.0199
820,0.0199
821,0.0199
822,0.0000
823,-0.0199
824,0.0000
825,-0.0199
826,-0.1395
827,-0.1594
828,-0.1195
829,0.0398
830,0.0598
831,0.0598
832,0.0996
833,0.0797
834,0.1793
835,0.1992
836,0.2590
837,0.2391
838,0.1395
839,0.0797
840,-0.0398
841,-0.0996
842,-0.0598
843,-0.1992
844,-0.2590
845,-0.2988
846,-0.2191
847,-0.1594
848,0.0199
849,0.0996
850,0.1793
851,0.2191
852,0.2391
853,0.2191
854,0.1793
855,0.1594
856,0.1395
857,0.0398
858,0.0598
859,0.0797
860,0.0996
861,0.0199
862,-0.0398
863,0.0797
864,0.1195
865,0.0797
866,0.0000
867,-0.0598
868,-0.1793
869,-0.0797
870,-0.0199
871,0.0398
872,0.1395
873,0.1793
874,0.1793
875,0.1793
876,0.0199
877,0.0199
878,-0.0199
879,-0.0398
880,0.0199
881,0.1195
882,0.2191
883,0.1793
884,0.1395
885,0.1395
886,0.0199
887,-0.0199
888,-0.0797
889,-0.0996
890,-0.1594
891,-0.1594
892,-0.0797
893,-0.1195
894,-0.1395
895,-0.1594
896,-0.2789
897,-0.4582
898,-0.3785
899,-0.3188
900,-0.4184
901,-0.3188
902,-0.1395
903,0.0199
904,0.1594
905,0.2391
906,0.2988
907,0.2590
908,0.1793
909,0.0797
910,-0.0199
911,-0.0797
912,-0.0996
913,0.0199
914,0.1195
915,0.1793
916,0.1594
917,0.2191
918,0.1195
919,-0.0199
920,-0.0398
921,-0.0996
922,-0.2191
923,-0.2590
924,-0.1195
925,-0.0598
926,0.0199
927,0.1793
928,0.1594
929,0.0996
930,0.0000
931,-0.0199
932,0.0996
933,0.1594
934,0.1594
935,0.2391
936,0.0398
937,-0.0398
938,-0.0598
939,-0.1395
940,-0.1195
941,-0.1793
942,-0.0996
943,-0.0199
944,0.0199
945,0.0199
946,-0.0199
947,-0.0598
948,0.0398
949,0.0797
950,0.1395
951,-0.0598
952,-0.0996
953,-0.1793
954,-0.0797
955,-0.0598
956,0.1395
957,0.3188
958,0.2391
959,0.1594
960,0.2191
961,0.3387
962,0.2789
963,0.2191
964,-0.0199
965,-0.1992
966,-0.2191
967,-0.1195
968,-0.0996
969,-0.1992
970,-0.3785
971,-0.4980
972,-0.4184
973,-0.2391
974,0.0797
975,0.2988
976,0.2789
977,0.2988
978,0.1594
979,0.1594
980,0.0398
981,-0.1195
982,-0.2191
983,-0.0398
984,0.0000
985,-0.1992
986,-0.4781
987,-0.4184
988,-0.3387
989,-0.3387
990,-0.1992
991,-0.0398
992,0.0199
993,-0.0398
994,0.0398
995,0.0000
996,0.0797
997,0.1395
998,0.3387
999,0.1793
1000,0.0797
1001,0.2191
1002,0.2191
1003,0.0598
1004,0.0598
1005,0.2191
1006,0.0797
1007,-0.0598
1008,-0.1594
1009,0.0398
1010,0.0797
1011,0.0000
1012,0.0598
1013,0.0598
1014,0.0398
1015,-0.3188
1016,-0.2391
1017,-0.0797
1018,-0.1195
1019,0.1195
1020,0.0996
1021,0.2391
1022,0.1594
1023,0.1992
1024,0.1793
1025,0.0000
1026,-0.0398
1027,-0.0398
1028,0.1195
1029,0.1992
1030,0.1992
1031,0.0996
1032,0.0000
1033,-0.0598
1034,-0.0199
1035,0.0398
1036,-0.0797
1037,0.0996
1038,0.3984
1039,0.5777
1040,0.7770
1041,0.7371
1042,0.5578
1043,0.3984
1044,0.1992
1045,-0.1395
1046,-0.4781
1047,-0.5977
1048,-0.5977
1049,-0.4582
1050,-0.6176
1051,-0.4980
1052,0.0199
1053,0.3586
1054,0.6375
1055,0.7969
1056,0.7172
1057,0.4781
1058,0.1594
1059,-0.0996
1060,-0.3387
1061,-0.2191
1062,-0.1594
1063,-0.3387
1064,-0.1793
1065,0.0797
1066,0.2789
1067,0.4781
1068,0.3785
1069,0.2789
1070,0.2789
1071,-0.0996
1072,-0.7770
1073,-0.8367
1074,-0.8367
1075,-0.8168
1076,-0.5777
1077,-0.3785
1078,-0.1594
1079,0.2988
1080,0.5977
1081,0.6973
1082,0.6176
1083,0.5578
1084,-0.0199
1085,-0.3984
1086,-0.8766
1087,-1.4941
1088,-1.4941
1089,-1.1555
1090,-0.6773
1091,-0.5777
1092,-0.4582
1093,-0.2391
1094,0.2789
1095,0.8566
1096,1.0559
1097,1.0758
1098,1.0160
1099,0.6773
1100,0.0199
1101,-0.6773
1102,-0.8965
1103,-1.1953
1104,-0.9762
1105,-0.4980
1106,-0.0598
1107,0.2391
1108,0.1195
1109,0.1594
1110,0.2191
1111,0.0797
1112,0.0000
1113,-0.1594
1114,-0.2789
1115,0.0199
1116,0.0199
1117,-0.0797
1118,0.0598
1119,0.4781
1120,0.6773
1121,0.5578
1122,0.4383
1123,0.3586
1124,0.2590
1125,0.0797
1126,-0.4582
1127,-0.8965
1128,-0.9164
1129,-0.3188
1130,-0.2789
1131,-0.3586
1132,-0.5180
1133,-0.2391
1134,-0.1395
1135,-0.1793
1136,-0.1793
1137,-0.0598
1138,0.2391
1139,0.5977
1140,0.5777
1141,0.5379
1142,0.3785
1143,0.0398
1144,-0.1395
1145,-0.2988
1146,-0.3586
1147,-0.4383
1148,-0.6574
1149,-0.4582
1150,-0.2988
1151,-0.2590
1152,-0.2191
1153,-0.4383
1154,-0.5379
1155,-0.4980
1156,-0.6773
1157,-0.8766
1158,-0.7172
1159,-0.2191
1160,0.3785
1161,0.6773
1162,0.6574
1163,0.5379
1164,0.4582
1165,0.0000
1166,-0.2191
1167,-0.4582
1168,-0.6176
1169,-0.4781
1170,-0.1793
1171,-0.0398
1172,0.0996
1173,0.2988
1174,0.5379
1175,0.5977
1176,0.5180
1177,0.1594
1178,-0.2391
1179,-0.2590
1180,-0.6973
1181,-0.7172
1182,-0.7172
1183,-0.4980
1184,-0.1594
1185,0.0199
1186,0.0996
1187,0.2191
1188,0.3387
1189,0.3586
1190,0.3984
1191,0.4184
1192,0.3984
1193,0.5977
1194,0.6176
1195,0.4980
1196,0.5578
1197,0.4184
1198,-0.1992
1199,-0.4980
1200,-0.4582
1201,-0.1793
1202,-0.1395
1203,-0.3586
1204,-0.4980
1205,-0.1992
1206,-0.0996
1207,-0.0797
1208,0.0000
1209,0.0598
1210,0.0996
1211,0.1195
1212,0.3188
1213,0.4383
1214,0.5977
1215,0.5180
1216,0.2590
1217,-0.2191
1218,-0.4980
1219,-0.6973
1220,-0.6574
1221,-0.5180
1222,-0.1395
1223,0.0996
1224,0.1992
1225,0.0797
1226,-0.0398
1227,-0.0996
1228,-0.1594
1229,-0.2789
1230,-0.2590
1231,-0.0996
1232,0.0398
1233,0.1594
1234,0.2590
1235,0.2391
1236,0.2191
1237,0.1395
1238,0.1793
1239,0.0398
1240,-0.3387
1241,-0.3586
1242,-0.1195
1243,0.1395
1244,0.1992
1245,0.2789
1246,0.1793
1247,0.0598
1248,-0.0996
1249,-0.1992
1250,-0.6176
1251,-0.8566
1252,-0.5977
1253,-0.4582
1254,-0.3586
1255,-0.0598
1256,0.2789
1257,0.5777
1258,0.5777
1259,0.6574
1260,0.8168
1261,0.8367
1262,1.0559
1263,1.0359
1264,1.0359
1265,0.8766
1266,0.7770
1267,0.4980
1268,0.3586
1269,0.3387
1270,0.2391
1271,0.3984
1272,0.3984
1273,0.3586
1274,0.0996
1275,-0.0398
1276,-0.1594
1277,-0.2988
1278,-0.1992
1279,-0.2789
1280,-0.2988
1281,-0.1395
1282,0.0797
1283,0.1594
1284,0.1395
1285,0.2191
1286,0.4184
1287,0.7371
1288,0.6773
1289,0.5379
1290,0.4980
1291,0.1594
1292,-0.4184
1293,-0.9363
1294,-0.9762
1295,-0.6375
1296,-0.2789
1297,-0.0797
1298,-0.0797
1299,0.1594
1300,0.3188
1301,0.3586
1302,0.3785
1303,0.2789
1304,0.0797
1305,-0.4383
1306,-0.8367
1307,-0.8566
1308,-0.8965
1309,-0.6375
1310,-0.3586
1311,-0.2590
1312,-0.0996
1313,-0.0398
1314,0.0398
1315,0.0996
1316,0.2191
1317,0.3984
1318,0.3586
1319,0.3188
1320,0.2590
1321,0.1992
1322,0.0797
1323,-0.0598
1324,-0.0797
1325,-0.2191
1326,-0.1395
1327,-0.1793
1328,-0.1992
1329,-0.0996
1330,0.1395
1331,0.3785
1332,0.3984
1333,0.4184
1334,0.4184
1335,0.3387
1336,0.1992
1337,-0.0996
1338,-0.3984
1339,-0.1195
1340,-0.3188
1341,-0.0398
1342,-0.0598
1343,-0.0199
1344,-0.0598
1345,-0.2191
1346,-0.2391
1347,-0.1992
1348,-0.1992
1349,-0.1395
1350,-0.0797
1351,0.0199
1352,0.0797
1353,0.0398
1354,0.0398
1355,0.0000
1356,0.1195
1357,0.0996
1358,0.0797
1359,0.0598
1360,-0.0598
1361,-0.3785
1362,-0.4781
1363,-0.4383
1364,-0.3984
1365,-0.1793
1366,-0.0398
1367,0.0199
1368,-0.0398
1369,-0.0996
1370,-0.2191
1371,-0.3984
1372,-0.3586
1373,-0.3785
1374,-0.4383
1375,-0.1793
1376,0.0797
1377,0.1195
1378,0.0996
1379,0.1195
1380,-0.1395
1381,-0.6973
1382,-0.9762
1383,-0.8965
1384,-0.5777
1385,-0.0797
1386,0.0598
1387,-0.0398
1388,-0.2391
1389,-0.0199
1390,-0.0996
1391,-0.2789
1392,-0.2590
1393,-0.3387
1394,-0.0797
1395,-0.1395
1396,-0.1594
1397,-0.2391
1398,-0.0398
1399,0.2988
1400,0.4582
1401,0.4184
1402,0.4582
1403,0.3984
1404,0.3188
1405,0.2988
1406,-0.0598
1407,-0.4383
1408,-0.3586
1409,-0.3387
1410,-0.4184
1411,-0.4781
1412,-0.5977
1413,-0.3984
1414,-0.0598
1415,0.0598
1416,0.0996
1417,0.0996
1418,0.1594
1419,0.1793
1420,0.1594
1421,0.1793
1422,0.1992
1423,0.1395
1424,0.1992
1425,0.3387
1426,0.3586
1427,0.3785
1428,0.0996
1429,0.0000
1430,-0.1992
1431,-0.2391
1432,-0.1793
1433,-0.3188
1434,-0.2988
1435,-0.0797
1436,0.1395
1437,0.3586
1438,0.4582
1439,0.3785
1440,0.2590
1441,0.1195
1442,-0.0797
1443,-0.1992
1444,-0.0199
1445,-0.0398
1446,-0.2191
1447,-0.1594
1448,-0.1992
1449,-0.1195
1450,0.0797
1451,-0.0398
1452,0.0598
1453,-0.0199
1454,-0.1793
1455,-0.2191
1456,-0.1992
1457,-0.1395
1458,-0.1594
1459,-0.0398
1460,0.1395
1461,0.5379
1462,0.6773
1463,0.5379
1464,0.4383
1465,0.2191
1466,-0.0398
1467,-0.3188
1468,-0.7371
1469,-0.5977
1470,-0.4582
1471,-0.2789
1472,0.0199
1473,0.0996
1474,0.2789
1475,0.3785
1476,0.4582
1477,0.3785
1478,0.1395
1479,0.0000
1480,-0.1594
1481,-0.0398
1482,-0.1594
1483,-0.1594
1484,0.0199
1485,0.1195
1486,0.0000
1487,0.1195
1488,0.2391
1489,0.2391
1490,0.3188
1491,0.3387
1492,0.3586
1493,0.3586
1494,0.3984
1495,0.3586
1496,0.2988
1497,0.1395
1498,0.2391
1499,0.2191
1500,0.1793
1501,0.1793
1502,0.0598
1503,-0.1395
1504,-0.1395
1505,-0.2391
1506,0.0000
1507,-0.0598
1508,-0.2789
1509,-0.2590
1510,-0.2590
1511,-0.2789
1512,-0.1793
1513,-0.3188
1514,-0.3387
1515,-0.2789
1516,-0.3785
1517,-0.2789
1518,-0.0598
1519,-0.0398
1520,0.0996
1521,0.1793
1522,0.2988
1523,0.3188
1524,0.1793
1525,0.1195
1526,-0.0598
1527,-0.1992
1528,-0.3387
1529,-0.3188
1530,-0.2789
1531,-0.4582
1532,-0.3387
1533,-0.6973
1534,-0.6973
1535,-0.5578
1536,-0.3984
1537,-0.1594
1538,-0.0598
1539,-0.0199
1540,0.0996
1541,0.0598
1542,0.0996
1543,0.0598
1544,-0.0598
1545,-0.1195
1546,-0.3387
1547,-0.2590
1548,-0.1992
1549,-0.1195
1550,-0.0199
1551,0.0000
1552,0.0598
1553,0.1594
1554,0.1793
1555,0.2590
1556,0.1992
1557,0.2191
1558,0.4980
1559,0.5379
1560,0.4383
1561,0.2789
1562,-0.0598
1563,-0.1195
1564,-0.3188
1565,-0.2191
1566,-0.0398
1567,0.1594
1568,0.4383
1569,0.5180
1570,0.3387
1571,0.1594
1572,0.1395
1573,0.0598
1574,-0.0797
1575,-0.5379
1576,-0.5379
1577,-0.4781
1578,-0.2191
1579,-0.1594
1580,-0.0996
1581,0.0000
1582,0.0398
1583,-0.0598
1584,-0.0598
1585,0.0797
1586,0.2391
1587,0.3188
1588,0.1395
1589,-0.0199
1590,-0.0598
1591,0.0000
1592,0.2191
1593,0.3188
1594,0.3785
1595,0.2789
1596,0.0797
1597,-0.0199
1598,-0.2988
1599,-0.5578
1600,-0.8566
1601,-0.5379
1602,-0.2789
1603,-0.2391
1604,-0.0797
1605,0.0199
1606,0.0199
1607,0.1395
1608,0.2988
1609,0.1594
1610,0.1793
1611,0.0797
1612,0.0000
1613,-0.1594
1614,-0.3387
1615,-0.3387
1616,-0.2391
1617,0.0398
1618,0.2590
1619,0.2789
1620,0.2391
1621,0.0797
1622,-0.0996
1623,-0.0996
1624,-0.2391
1625,-0.4184
1626,-0.2590
1627,-0.2391
1628,-0.2590
1629,-0.2789
1630,0.0199
1631,0.0398
1632,0.1195
1633,0.0797
1634,0.2789
1635,0.1793
1636,-0.0199
1637,-0.0797
1638,0.0000
1639,-0.0598
1640,-0.1395
1641,-0.1195
1642,-0.1395
1643,-0.3586
1644,-0.3387
1645,-0.3586
1646,-0.3188
1647,-0.2590
1648,-0.1395
1649,0.0199
1650,0.0398
1651,0.0598
1652,0.0598
1653,0.1594
1654,0.2988
1655,0.2789
1656,0.4184
1657,0.4582
1658,0.1195
1659,0.0398
1660,0.0000
1661,-0.0797
1662,0.0598
1663,-0.0598
1664,-0.2191
1665,-0.0797
1666,0.0199
1667,0.0398
1668,0.0598
1669,0.2191
1670,0.1793
1671,0.2789
1672,0.2391
1673,0.3188
1674,0.3387
1675,0.2789
1676,0.0199
1677,-0.0598
1678,0.0398
1679,0.1594
1680,0.1793
1681,-0.1195
1682,-0.1395
1683,-0.0199
1684,0.0398
1685,0.1195
1686,0.1992
1687,0.2789
1688,0.2590
1689,0.0996
1690,0.1793
1691,0.0398
1692,0.1793
1693,0.1594
1694,0.1793
1695,0.2391
1696,0.1793
1697,-0.2391
1698,-0.5578
1699,-0.9164
1700,-1.1156
1701,-0.7172
1702,-0.5180
1703,-0.3586
1704,-0.1594
1705,0.0199
1706,0.2789
1707,0.4582
1708,0.4582
1709,0.3586
1710,0.4184
1711,0.1992
1712,-0.0398
1713,-0.2590
1714,-0.1395
1715,-0.1395
1716,0.0598
1717,0.0199
1718,0.0598
1719,0.2988
1720,0.4781
1721,0.5379
1722,0.4184
1723,0.0996
1724,-0.0398
1725,-0.0797
1726,-0.3984
1727,-0.4980
1728,-0.3586
1729,-0.1992
1730,-0.2590
1731,-0.1992
1732,-0.1195
1733,0.0000
1734,0.0398
1735,0.1195
1736,0.1395
1737,0.1395
1738,0.3188
1739,0.2789
1740,0.2988
1741,0.1793
1742,0.1195
1743,0.0598
1744,-0.0398
1745,-0.1992
1746,-0.0996
1747,0.0598
1748,0.0797
1749,0.1793
1750,0.2789
1751,0.4582
1752,0.5777
1753,0.3586
1754,-0.0199
1755,-0.2988
1756,-0.1992
1757,0.1395
1758,0.0199
1759,-0.0797
1760,-0.3387
1761,-0.3387
1762,-0.2789
1763,-0.1195
1764,-0.0398
1765,-0.0598
1766,0.0000
1767,-0.0797
1768,-0.1195
1769,-0.0598
1770,0.2191
1771,0.2191
1772,0.0598
1773,0.0000
1774,-0.2191
1775,-0.3188
1776,-0.5977
1777,-0.5180
1778,-0.3188
1779,-0.3188
1780,-0.0996
1781,0.0996
1782,0.2191
1783,0.3586
1784,0.3785
1785,0.3387
1786,0.2391
1787,0.0000
1788,-0.2590
1789,-0.2590
1790,-0.1992
1791,-0.1793
1792,-0.0797
1793,0.0398
1794,0.1395
1795,0.0797
1796,0.1594
1797,0.1594
1798,0.2789
1799,0.3586
1800,0.2590
1801,0.2391
1802,0.2191
1803,0.1195
1804,0.0598
1805,-0.1195
1806,-0.2191
1807,-0.1992
1808,-0.1395
1809,-0.1992
1810,-0.1594
1811,-0.1395
1812,-0.2988
1813,-0.2988
1814,-0.1793
1815,-0.0797
1816,-0.0398
1817,0.0598
1818,0.0598
1819,0.2191
1820,0.2988
1821,0.1594
1822,0.0398
1823,-0.0398
1824,-0.0996
1825,0.0199
1826,0.0000
1827,0.0000
1828,0.0398
1829,0.1793
1830,0.1793
1831,0.1992
1832,0.2590
1833,0.1793
1834,0.2789
1835,0.2391
1836,0.0000
1837,-0.1195
1838,-0.1992
1839,-0.2191
1840,-0.1992
1841,-0.4582
1842,-0.5180
1843,-0.3586
1844,-0.0598
1845,0.0996
1846,-0.0598
1847,-0.1195
1848,-0.1195
1849,-0.2391
1850,-0.3586
1851,-0.1992
1852,0.0199
1853,0.1195
1854,0.1992
1855,0.1195
1856,0.1195
1857,-0.0598
1858,-0.2191
1859,-0.1395
1860,-0.1594
1861,-0.2391
1862,-0.3586
1863,-0.2191
1864,-0.1195
1865,-0.1594
1866,-0.2391
1867,-0.1992
1868,-0.2391
1869,-0.1992
1870,-0.1395
1871,0.0398
1872,-0.0996
1873,-0.1195
1874,0.0398
1875,0.2590
1876,0.2789
1877,0.0797
1878,-0.0598
1879,-0.0598
1880,-0.0199
1881,-0.1594
1882,-0.2391
1883,-0.0996
1884,-0.0797
1885,0.1195
1886,0.2590
1887,0.2988
1888,0.2391
1889,0.2789
1890,0.3387
1891,0.2988
1892,0.1594
1893,-0.1594
1894,-0.2391
1895,-0.0199
1896,0.0598
1897,0.1793
1898,0.2988
1899,0.3785
1900,0.3387
1901,0.1195
1902,0.1195
1903,0.0199
1904,-0.0598
1905,-0.0598
1906,-0.1195
1907,-0.0996
1908,0.1594
1909,0.3586
1910,0.4184
1911,0.4383
1912,0.4383
1913,0.1195
1914,-0.1793
1915,-0.1793
1916,0.0598
1917,0.1395
1918,-0.0598
1919,-0.0598
1920,-0.2590
1921,-0.2789
1922,-0.2391
1923,-0.1793
1924,0.0598
1925,0.1594
1926,0.1395
1927,0.2391
1928,0.0199
1929,-0.2391
1930,-0.1793
1931,0.0797
1932,0.1395
1933,0.0797
1934,-0.0598
1935,-0.1992
1936,-0.3387
1937,-0.4781
1938,-0.4980
1939,-0.4184
1940,-0.2590
1941,-0.1195
1942,-0.0398
1943,-0.0598
1944,-0.0398
1945,-0.2191
1946,-0.1992
1947,0.0000
1948,0.0996
1949,0.1992
1950,0.2789
1951,0.1195
1952,-0.1395
1953,-0.3984
1954,-0.4184
1955,-0.3586
1956,-0.2191
1957,-0.0996
1958,-0.0996
1959,-0.0199
1960,-0.0598
1961,-0.1195
1962,-0.0598
1963,0.0398
1964,0.0598
1965,0.0598
1966,0.0797
1967,0.1992
1968,0.2391
1969,0.3188
1970,0.2590
1971,0.2391
1972,0.2191
1973,0.0797
1974,0.0797
1975,-0.0199
1976,-0.0996
1977,-0.1594
1978,-0.1395
1979,-0.1195
1980,-0.0398
1981,0.0398
1982,0.0199
1983,0.0996
1984,0.0797
1985,-0.0598
1986,0.0996
1987,0.2191
1988,0.2191
1989,0.1195
1990,-0.1195
1991,-0.2590
1992,-0.1992
1993,-0.0199
1994,0.0199
1995,0.0996
1996,0.3188
1997,0.3387
1998,0.2590
1999,0.2391
2000,0.0996
2001,-0.0398
2002,-0.1395
2003,-0.0199
2004,0.2191
2005,0.3387
2006,0.1594
2007,0.0996
2008,0.1793
2009,0.2789
2010,0.2391
2011,0.0996
2012,-0.2391
2013,-0.5578
2014,-0.4582
2015,-0.4383
2016,-0.5180
2017,-0.3586
2018,-0.0996
2019,-0.0598
2020,0.0000
2021,0.1195
2022,0.1793
2023,0.1992
2024,0.1195
2025,0.0398
2026,0.0000
2027,-0.0199
2028,0.0598
2029,0.1594
2030,0.2191
2031,0.3387
2032,0.3188
2033,0.0199
2034,-0.4383
2035,-0.5777
2036,-0.5578
2037,-0.4980
2038,-0.4383
2039,-0.4184
2040,-0.1793
2041,-0.0996
2042,-0.0996
2043,0.0598
2044,0.1395
2045,0.1992
2046,0.1793
2047,0.1594
2048,0.2590
2049,0.1992
2050,0.1195
2051,-0.0598
2052,-0.1992
2053,-0.1594
2054,-0.1793
2055,-0.2191
2056,-0.0797
2057,0.0797
2058,0.1594
2059,0.1793
2060,0.1195
2061,0.1195
2062,0.1793
2063,0.0797
2064,0.0199
2065,0.0000
2066,0.0598
2067,0.0199
2068,-0.1992
2069,-0.2391
2070,-0.2391
2071,-0.0996
2072,-0.0398
2073,-0.1195
2074,-0.1195
2075,-0.1395
2076,-0.2391
2077,-0.2191
2078,-0.0398
2079,0.0398
2080,0.1195
2081,0.0398
2082,0.0797
2083,0.0000
2084,-0.1195
2085,-0.0797
2086,-0.1195
2087,-0.2191
2088,-0.3387
2089,-0.1992
2090,0.0199
2091,0.1992
2092,0.2590
2093,0.3785
2094,0.3785
2095,0.2191
2096,0.1195
2097,0.0000
2098,-0.1992
2099,-0.0996
2100,-0.1594
2101,-0.1594
2102,-0.2391
2103,-0.1395
2104,-0.1395
2105,-0.0996
2106,-0.0398
2107,-0.0199
2108,-0.0398
2109,0.0398
2110,0.1594
2111,0.1992
2112,0.0797
2113,0.1195
2114,0.0199
2115,0.0199
2116,0.0199
2117,-0.0598
2118,-0.2191
2119,-0.2988
2120,-0.2789
2121,-0.1793
2122,-0.1793
2123,-0.1992
2124,-0.1195
2125,-0.0199
2126,-0.0797
2127,-0.1395
2128,-0.1594
2129,-0.2590
2130,-0.3188
2131,-0.2789
2132,-0.1594
2133,-0.0797
2134,-0.0199
2135,0.0000
2136,0.0398
2137,0.0996
2138,0.1992
2139,0.1793
2140,0.1594
2141,0.0000
2142,-0.0598
2143,-0.1594
2144,-0.3785
2145,-0.3785
2146,-0.5578
2147,-0.4980
2148,-0.2590
2149,-0.0598
2150,0.2391
2151,0.3387
2152,0.3188
2153,0.1793
2154,0.1195
2155,-0.1195
2156,-0.4980
2157,-0.4582
2158,-0.2789
2159,-0.1195
2160,-0.0996
2161,-0.0797
2162,0.0797
2163,0.1793
2164,0.2391
2165,0.2988
2166,0.2590
2167,0.2590
2168,0.0797
2169,-0.0398
2170,-0.1395
2171,-0.1594
2172,-0.1594
2173,0.0199
2174,0.0199
2175,0.0797
2176,0.0797
2177,0.0996
2178,0.0398
2179,0.0398
2180,0.1195
2181,0.1195
2182,0.1195
2183,0.1395
2184,0.1992
2185,0.1594
2186,0.1195
2187,0.0199
2188,-0.0199
2189,-0.0797
2190,0.0598
2191,0.0797
2192,0.1195
2193,0.0996
2194,0.1594
2195,0.1195
2196,0.0996
2197,0.0199
2198,-0.0797
2199,0.0000
2200,-0.0797
2201,-0.2391
2202,-0.0398
2203,0.0398
2204,0.0199
2205,0.0000
2206,0.0199
2207,-0.0199
2208,-0.0996
2209,0.0398
2210,0.2391
2211,0.2191
2212,0.2789
2213,0.1594
2214,-0.0199
2215,-0.1195
2216,-0.1195
2217,-0.1195
2218,0.0000
2219,0.0199
2220,0.0598
2221,-0.0199
2222,0.0000
2223,-0.2590
2224,-0.2789
2225,0.0199
2226,0.1195
2227,0.1395
2228,0.0797
2229,-0.1992
2230,-0.4383
2231,-0.3586
2232,-0.2988
2233,-0.1992
2234,-0.0996
2235,0.0398
2236,0.0598
2237,0.0797
2238,0.1195
2239,0.1793
2240,0.1793
2241,0.0797
2242,0.0398
2243,0.0598
2244,0.0000
2245,-0.1195
2246,-0.0797
2247,-0.1395
2248,-0.1793
2249,-0.0598
2250,0.0199
2251,0.0199
2252,0.0000
2253,0.0199
2254,0.0598
2255,0.0996
2256,0.1195
2257,0.0000
2258,-0.0598
2259,-0.0398
2260,0.0000
2261,-0.0598
2262,-0.1395
2263,-0.1195
2264,-0.0199
2265,-0.0199
2266,0.0199
2267,0.1594
2268,0.2191
2269,0.2191
2270,0.3188
2271,0.1594
2272,-0.0398
2273,-0.0797
2274,-0.0996
2275,-0.0996
2276,-0.0199
2277,-0.0598
2278,-0.1395
2279,-0.1594
2280,0.0199
2281,0.1594
2282,0.0199
2283,0.0000
2284,0.1793
2285,0.3188
2286,0.2391
2287,0.1395
2288,-0.2391
2289,-0.5578
2290,-0.3586
2291,-0.3387
2292,-0.3785
2293,-0.1594
2294,-0.0199
2295,0.0598
2296,0.0398
2297,-0.0398
2298,0.0398
2299,0.1594
2300,0.1395
2301,0.1195
2302,0.0398
2303,0.0000
2304,0.1395
2305,0.1395
2306,0.2391
2307,0.0996
2308,0.0996
2309,0.0598
2310,-0.0199
2311,-0.1395
2312,0.0000
2313,0.1793
2314,0.2789
2315,0.3188
2316,0.2391
2317,0.1594
2318,0.1195
2319,-0.0199
2320,-0.1594
2321,-0.2988
2322,-0.2789
2323,-0.0598
2324,0.1594
2325,0.3188
2326,0.2988
2327,0.3188
2328,0.2789
2329,0.1992
2330,-0.0398
2331,-0.2191
2332,-0.0996
2333,0.0598
2334,0.0797
2335,0.2391
2336,0.2391
2337,0.2191
2338,0.1195
2339,0.0398
2340,0.0199
2341,0.0598
2342,0.1395
2343,0.1195
2344,0.0996
2345,0.2191
2346,0.2590
2347,0.2191
2348,0.0996
2349,0.0996
2350,-0.0199
2351,0.0996
2352,-0.1594
2353,-0.4781
2354,-0.4184
2355,-0.1793
2356,0.0996
2357,0.2391
2358,0.2191
2359,0.1992
2360,0.0199
2361,-0.3188
2362,-0.3387
2363,-0.4980
2364,-0.5379
2365,-0.1992
2366,0.0797
2367,0.0598
2368,-0.0199
2369,-0.1793
2370,-0.3586
2371,-0.2789
2372,-0.1395
2373,-0.0797
2374,0.0398
2375,0.2988
2376,0.3387
2377,0.3785
2378,0.3188
2379,0.1195
2380,-0.0996
2381,-0.2191
2382,-0.6176
2383,-0.5977
2384,-0.3387
2385,-0.1594
2386,-0.0598
2387,-0.1195
2388,-0.1195
2389,-0.0797
2390,-0.0199
2391,0.0000
2392,0.0996
2393,0.0199
2394,-0.1395
2395,-0.1594
2396,-0.0398
2397,-0.0398
2398,-0.0199
2399,0.1195
2400,0.1594
2401,0.1793
2402,0.1992
2403,0.0598
2404,-0.0398
2405,-0.1594
2406,-0.1594
2407,-0.1395
2408,-0.0199
2409,0.0598
2410,0.1793
2411,0.1793
2412,0.0996
2413,0.0996
2414,0.0398
2415,0.0000
2416,0.0598
2417,0.1793
2418,0.1195
2419,0.1992
2420,0.2590
2421,0.1992
2422,0.1395
2423,0.0398
2424,0.1195
2425,0.0598
2426,0.0996
2427,0.0996
2428,0.0996
2429,-0.0598
2430,-0.0398
2431,0.0000
2432,0.1594
2433,-0.0199
2434,-0.2590
2435,-0.2191
2436,-0.2590
2437,-0.2191
2438,-0.1793
2439,-0.0996
2440,-0.0797
2441,-0.0598
2442,-0.0199
2443,0.1395
2444,0.2391
2445,0.2391
2446,0.2590
2447,0.3785
2448,0.2590
2449,0.1992
2450,0.1793
2451,0.0199
2452,0.1195
2453,0.0199
2454,0.0199
2455,0.0996
2456,-0.0598
2457,-0.1793
2458,-0.2988
2459,-0.5578
2460,-0.3785
2461,-0.2191
2462,-0.1793
2463,-0.1594
2464,-0.1594
2465,-0.0797
2466,0.0199
2467,0.1793
2468,0.2191
2469,0.1992
2470,0.2191
2471,0.0996
2472,0.0000
2473,-0.2789
2474,-0.2988
2475,-0.2391
2476,-0.0797
2477,-0.0398
2478,0.0398
2479,0.0398
2480,0.0398
2481,0.0996
2482,0.1594
2483,0.1195
2484,0.0199
2485,-0.0797
2486,-0.1594
2487,-0.0598
2488,-0.0398
2489,-0.0398
2490,-0.0598
2491,-0.0996
2492,-0.1195
2493,-0.1594
2494,0.0000
2495,-0.0996
2496,0.0199
2497,0.2191
2498,0.3785
2499,0.5180
2500,0.5578
2501,0.5180
2502,0.4980
2503,0.3188
2504,0.1395
2505,0.0199
2506,-0.2789
2507,-0.3586
2508,-0.5777
2509,-0.3586
2510,-0.1992
2511,-0.0199
2512,0.0199
2513,0.1395
2514,0.1793
2515,0.1195
2516,0.0000
2517,-0.0398
2518,-0.1594
2519,-0.0797
2520,0.1195
2521,0.1594
2522,0.2590
2523,0.4184
2524,0.4980
2525,0.3586
2526,0.0598
2527,-0.1395
2528,-0.2789
2529,-0.4781
2530,-0.4383
2531,-0.2391
2532,-0.0797
2533,-0.0996
2534,0.0398
2535,0.0398
2536,0.0598
2537,-0.0598
2538,-0.1992
2539,-0.1793
2540,-0.1594
2541,-0.1594
2542,0.0996
2543,0.0996
2544,0.0996
2545,0.1992
2546,0.2590
2547,0.1992
2548,0.0598
2549,0.0199
2550,-0.0398
2551,-0.0598
2552,-0.2391
2553,-0.3586
2554,-0.3387
2555,-0.3984
2556,-0.3785
2557,-0.1793
2558,-0.0797
2559,0.0598
2560,0.0797
2561,0.1594
2562,0.1793
2563,0.0598
2564,0.0598
2565,-0.0598
2566,-0.0996
2567,-0.1395
2568,-0.0398
2569,-0.0996
2570,-0.2391
2571,-0.1992
2572,-0.2191
2573,-0.2789
2574,-0.1992
2575,-0.0996
2576,-0.0398
2577,0.0996
2578,0.0797
2579,0.1195
2580,0.1594
2581,0.2191
2582,0.2988
2583,0.2391
2584,0.2789
2585,0.1594
2586,-0.1195
2587,-0.3785
2588,-0.5777
2589,-0.4184
2590,-0.2590
2591,-0.1395
2592,-0.0797
2593,-0.0598
2594,0.0199
2595,0.2191
2596,0.0199
2597,0.0199
2598,0.0797
2599,0.0996
2600,0.0598
2601,0.0000
2602,0.1594
2603,0.1992
2604,0.1992
2605,0.3188
2606,0.2391
2607,0.2590
2608,0.3188
2609,0.0797
2610,-0.0199
2611,-0.2590
2612,-0.4184
2613,-0.1594
2614,-0.0797
2615,0.0199
2616,0.0996
2617,0.3188
2618,0.3188
2619,0.2988
2620,0.4184
2621,0.3188
2622,-0.0598
2623,-0.2191
2624,-0.2789
2625,-0.4184
2626,-0.3387
2627,-0.1594
2628,-0.1793
2629,-0.0996
2630,-0.1395
2631,-0.0398
2632,0.1195
2633,0.1992
2634,0.0797
2635,0.1195
2636,0.0797
2637,0.0000
2638,0.1793
2639,0.4184
2640,0.4184
2641,0.3785
2642,0.1793
2643,-0.1195
2644,-0.5180
2645,-0.6973
2646,-0.4383
2647,-0.0996
2648,-0.0199
2649,-0.0199
2650,-0.0996
2651,-0.1594
2652,-0.1395
2653,-0.2191
2654,0.0000
2655,0.1793
2656,0.1195
2657,0.1793
2658,0.2391
2659,0.2988
2660,0.2988
2661,0.1195
2662,0.0797
2663,0.0000
2664,0.1195
2665,0.2590
2666,0.1395
2667,-0.0598
2668,-0.0199
2669,-0.0996
2670,-0.1793
2671,-0.1992
2672,-0.2789
2673,-0.1992
2674,-0.0996
2675,0.0398
2676,0.1395
2677,0.1195
2678,0.0996
2679,-0.0199
2680,-0.0398
2681,0.0398
2682,0.2789
2683,0.2590
2684,0.0000
2685,0.0000
2686,0.0398
2687,-0.1594
2688,-0.4383
2689,-0.4383
2690,-0.2391
2691,-0.0398
2692,0.0797
2693,0.0598
2694,0.0398
2695,-0.0797
2696,-0.2191
2697,-0.2988
2698,-0.3586
2699,-0.3586
2700,-0.0996
2701,0.0199
2702,0.1594
2703,0.1992
2704,0.1992
2705,0.1594
2706,0.1594
2707,0.2191
2708,0.1395
2709,-0.0598
2710,-0.2391
2711,-0.2391
2712,0.0797
2713,0.1594
2714,0.1195
2715,0.1395
2716,0.0996
2717,-0.0398
2718,-0.1992
2719,-0.2191
2720,-0.2590
2721,-0.3785
2722,-0.2590
2723,-0.0797
2724,-0.1195
2725,-0.1195
2726,-0.0598
2727,-0.0398
2728,0.0000
2729,0.0199
2730,0.1395
2731,0.0797
2732,-0.0598
2733,-0.1395
2734,-0.2789
2735,-0.4980
2736,-0.4582
2737,-0.2191
2738,-0.0797
2739,-0.0598
2740,-0.0797
2741,-0.0598
2742,-0.0398
2743,-0.0398
2744,-0.0398
2745,-0.1793
2746,-0.3387
2747,-0.2391
2748,-0.2191
2749,-0.0797
2750,0.0199
2751,0.1195
2752,0.1395
2753,0.2191
2754,0.1793
2755,0.0797
2756,0.0598
2757,-0.0398
2758,-0.1195
2759,-0.1992
2760,-0.2590
2761,-0.2391
2762,-0.2391
2763,-0.1395
2764,-0.1195
2765,-0.0797
2766,0.0797
2767,0.2391
2768,0.2391
2769,0.1992
2770,0.2988
2771,0.1793
2772,0.0598
2773,0.0797
2774,0.0000
2775,0.0598
2776,-0.0199
2777,-0.1195
2778,-0.1793
2779,-0.0598
2780,0.0996
2781,0.0797
2782,0.1195
2783,0.1195
2784,0.0797
2785,0.0797
2786,0.0199
2787,0.0000
2788,0.0598
2789,0.0797
2790,0.0797
2791,0.0797
2792,-0.0199
2793,-0.1395
2794,-0.1793
2795,-0.1793
2796,0.0996
2797,0.3387
2798,0.1992
2799,0.1395
2800,-0.0996
2801,-0.2789
2802,-0.2988
2803,-0.4383
2804,-0.4980
2805,-0.4781
2806,-0.2789
2807,-0.0398
2808,0.0199
2809,-0.0797
2810,0.0000
2811,0.0398
2812,0.0996
2813,0.2191
2814,0.0797
2815,-0.1594
2816,-0.2391
2817,-0.1594
2818,-0.3188
2819,-0.4184
2820,-0.5180
2821,-0.1992
2822,-0.0797
2823,0.0598
2824,0.0996
2825,0.0996
2826,0.0398
2827,-0.1395
2828,-0.3188
2829,-0.4980
2830,-0.4781
2831,-0.2191
2832,0.0000
2833,0.1195
2834,0.1395
2835,0.0598
2836,0.0797
2837,0.0398
2838,-0.0199
2839,0.0000
2840,-0.1195
2841,-0.0398
2842,0.0199
2843,0.0598
2844,0.0598
2845,0.1195
2846,0.1395
2847,-0.0996
2848,-0.0398
2849,-0.0797
2850,-0.0598
2851,0.0398
2852,0.1793
2853,0.2988
2854,0.3984
2855,0.3984
2856,0.2590
2857,0.0398
2858,-0.0996
2859,-0.1992
2860,-0.2191
2861,-0.1594
2862,-0.0199
2863,0.1594
2864,0.1395
2865,0.0996
2866,0.1395
2867,0.0797
2868,-0.0996
2869,-0.2191
2870,-0.1195
2871,-0.2789
2872,-0.2590
2873,-0.0996
2874,0.1395
2875,0.1395
2876,0.0598
2877,-0.0199
2878,-0.0598
2879,-0.0598
2880,-0.1594
2881,-0.0996
2882,-0.0199
2883,-0.0199
2884,-0.0199
2885,-0.0398
2886,-0.1594
2887,-0.1992
2888,-0.1594
2889,-0.0398
2890,0.0996
2891,0.3188
2892,0.3188
2893,0.2590
2894,0.2191
2895,0.1992
2896,0.0996
2897,0.0598
2898,-0.2191
2899,-0.4184
2900,-0.3188
2901,-0.0598
2902,0.0398
2903,0.1395
2904,0.2191
2905,0.1594
2906,0.0797
2907,0.0398
2908,-0.0598
2909,-0.0797
2910,-0.0598
2911,0.0000
2912,0.0996
2913,0.0996
2914,0.0996
2915,0.1793
2916,0.1195
2917,0.0797
2918,0.0797
2919,0.0797
2920,0.0996
2921,0.0996
2922,0.2391
2923,0.2789
2924,0.2191
2925,0.0199
2926,-0.2191
2927,-0.1594
2928,-0.1395
2929,-0.0996
2930,-0.1594
2931,-0.1195
2932,-0.0398
2933,0.0598
2934,0.0996
2935,0.0996
2936,0.0398
2937,0.0398
2938,-0.0199
2939,0.0000
2940,0.1395
2941,0.2590
2942,0.3188
2943,0.3984
2944,0.2988
2945,0.1793
2946,-0.0199
2947,-0.2391
2948,-0.5180
2949,-0.4582
2950,-0.3387
2951,-0.2988
2952,-0.1793
2953,0.0996
2954,0.1594
2955,0.0996
2956,0.0000
2957,-0.0996
2958,0.0000
2959,0.0398
2960,0.0398
2961,-0.0199
2962,-0.0598
2963,0.0199
2964,0.0199
2965,-0.0598
2966,-0.1195
2967,0.0199
2968,0.2988
2969,0.3785
2970,0.2590
2971,0.0199
2972,-0.0398
2973,0.0199
2974,0.0996
2975,0.0398
2976,-0.1395
2977,-0.2391
2978,-0.4781
2979,-0.4582
2980,-0.2391
2981,-0.0398
2982,0.0598
2983,0.0996
2984,0.0598
2985,0.0797
2986,0.0598
2987,0.1793
2988,0.0996
2989,0.1395
2990,0.0398
2991,0.0000
2992,-0.0398
2993,-0.0797
2994,0.0199
2995,-0.0199
2996,-0.1395
2997,0.0199
2998,0.0000
2999,0.0398
3000,0.0797
3001,0.0398
3002,0.0000
3003,-0.1793
3004,-0.2391
3005,-0.1992
3006,-0.2191
3007,-0.1395
3008,-0.0797
3009,-0.0996
3010,-0.0797
3011,-0.0199
3012,0.0996
3013,0.0996
3014,0.0199
3015,0.0598
3016,0.0598
3017,0.0598
3018,0.0996
3019,-0.0797
3020,-0.0598
3021,-0.0797
3022,-0.0598
3023,-0.0797
3024,-0.1395
3025,-0.1992
3026,-0.2191
3027,-0.1793
3028,-0.0398
3029,-0.0199
3030,-0.0398
3031,0.0000
3032,-0.0398
3033,-0.0996
3034,-0.1395
3035,-0.1195
3036,-0.0398
3037,-0.0996
3038,0.0000
3039,0.0996
3040,0.0996
3041,0.1195
3042,0.0398
3043,0.0000
3044,0.0000
3045,-0.0797
3046,-0.2191
3047,-0.4383
3048,-0.4582
3049,-0.3785
3050,-0.1195
3051,-0.1195
3052,0.0398
3053,0.0398
3054,-0.0598
3055,0.0797
3056,0.1195
3057,0.1395
3058,0.1793
3059,0.2391
3060,0.1992
3061,0.2590
3062,0.2391
3063,0.3188
3064,0.1992
3065,0.0398
3066,-0.1395
3067,-0.5379
3068,-0.6375
3069,-0.5578
3070,-0.5180
3071,-0.2391
3072,0.0000
3073,0.1594
3074,0.1992
3075,0.2191
3076,0.2391
3077,0.1992
3078,0.1793
3079,0.1195
3080,0.0598
3081,-0.0398
3082,-0.1395
3083,-0.1992
3084,-0.2191
3085,-0.2391
3086,-0.1195
3087,0.0199
3088,0.2391
3089,0.3188
3090,0.2191
3091,0.0797
3092,-0.1992
3093,-0.3387
3094,-0.4184
3095,-0.3188
3096,-0.2590
3097,-0.1992
3098,-0.0996
3099,0.0797
3100,0.1992
3101,0.1992
3102,0.1992
3103,0.1594
3104,0.0996
3105,0.0398
3106,-0.2590
3107,-0.3188
3108,-0.2191
3109,-0.1594
3110,-0.1195
3111,-0.2789
3112,-0.2391
3113,-0.1594
3114,-0.1793
3115,-0.0797
3116,0.0797
3117,0.1793
3118,0.1992
3119,0.3785
3120,0.2590
3121,0.1992
3122,0.1395
3123,-0.0398
3124,-0.2391
3125,-0.6375
3126,-0.5777
3127,-0.4582
3128,-0.0996
3129,0.0996
3130,0.1992
3131,0.1395
3132,0.0598
3133,0.0199
3134,0.0996
3135,0.1992
3136,0.2191
3137,0.2789
3138,0.2590
3139,0.1793
3140,-0.2391
3141,-0.6176
3142,-0.6375
3143,-0.4781
3144,-0.2988
3145,-0.2391
3146,-0.1793
3147,-0.0996
3148,-0.1195
3149,-0.0199
3150,-0.0598
3151,0.0000
3152,0.1594
3153,0.2590
3154,0.2590
3155,0.0797
3156,-0.1395
3157,-0.1992
3158,-0.0996
3159,-0.0199
3160,-0.1793
3161,-0.1594
3162,-0.1195
3163,-0.0398
3164,-0.0598
3165,-0.0598
3166,-0.0996
3167,-0.1992
3168,-0.3984
3169,-0.2988
3170,-0.0996
3171,0.0000
3172,-0.0199
3173,-0.0598
3174,0.0398
3175,0.0797
3176,0.1395
3177,0.2391
3178,0.3188
3179,0.3586
3180,0.1195
3181,0.0000
3182,-0.0797
3183,-0.2191
3184,-0.2191
3185,-0.3586
3186,-0.4184
3187,-0.3785
3188,-0.1793
3189,0.0797
3190,0.2191
3191,0.3387
3192,0.4184
3193,0.5777
3194,0.5777
3195,0.4781
3196,0.2391
3197,-0.1793
3198,-0.3188
3199,-0.4781
3200,-0.3387
3201,-0.2191
3202,-0.0996
3203,-0.1195
3204,-0.1992
3205,-0.1594
3206,-0.0598
3207,0.0996
3208,0.2391
3209,0.3785
3210,0.4980
3211,0.3188
3212,0.3586
3213,0.3188
3214,0.2590
3215,0.1195
3216,-0.1195
3217,-0.2590
3218,-0.1992
3219,-0.0996
3220,0.0598
3221,0.1793
3222,0.2590
3223,0.2988
3224,0.2789
3225,0.2391
3226,0.1992
3227,0.3387
3228,0.4582
3229,0.2191
3230,0.1992
3231,0.1395
3232,-0.1594
3233,-0.3586
3234,-0.5977
3235,-0.5379
3236,-0.2988
3237,-0.1195
3238,0.0598
3239,0.1395
3240,0.1992
3241,0.2789
3242,0.3984
3243,0.2988
3244,0.1594
3245,0.0199
3246,-0.1793
3247,-0.1992
3248,-0.1992
3249,-0.2789
3250,-0.1395
3251,-0.1793
3252,0.0598
3253,0.1992
3254,0.2391
3255,0.2191
3256,0.1992
3257,0.2391
3258,0.0996
3259,-0.1195
3260,-0.2590
3261,-0.1992
3262,-0.0996
3263,0.0199
3264,0.1395
3265,0.1594
3266,0.2391
3267,0.2789
3268,0.0398
3269,-0.1195
3270,-0.0598
3271,0.0797
3272,0.1992
3273,0.1195
3274,0.0398
3275,-0.0598
3276,0.1395
3277,0.1992
3278,-0.0199
3279,-0.0199
3280,-0.0996
3281,-0.1793
3282,-0.0996
3283,-0.1195
3284,0.1195
3285,0.3188
3286,0.3188
3287,0.3188
3288,0.1195
3289,0.0199
3290,0.0199
3291,-0.0797
3292,-0.1992
3293,-0.2191
3294,-0.2789
3295,-0.0598
3296,0.1395
3297,0.1793
3298,0.2191
3299,0.1793
3300,0.0996
3301,0.0797
3302,-0.0398
3303,-0.0598
3304,-0.0598
3305,-0.1195
3306,0.0598
3307,0.0000
3308,0.0398
3309,0.1594
3310,0.1992
3311,0.1594
3312,0.2391
3313,0.2191
3314,0.2590
3315,0.1992
3316,0.1594
3317,0.0398
3318,-0.0797
3319,-0.0797
3320,-0.0199
3321,-0.0398
3322,0.0398
3323,-0.0598
3324,-0.1395
3325,-0.1793
3326,-0.1594
3327,0.0000
3328,0.0598
3329,0.1195
3330,0.1395
3331,0.0398
3332,0.0598
3333,0.1793
3334,0.2789
3335,0.0996
3336,-0.0797
3337,-0.0199
3338,-0.0598
3339,-0.0996
3340,-0.2191
3341,-0.3586
3342,-0.4184
3343,-0.2789
3344,-0.1992
3345,0.0000
3346,0.1395
3347,0.2590
3348,0.2789
3349,0.2789
3350,0.2988
3351,0.2590
3352,0.1793
3353,0.1992
3354,-0.1594
3355,-0.5977
3356,-0.6773
3357,-0.4582
3358,-0.3586
3359,-0.1594
3360,-0.0199
3361,0.0598
3362,0.0398
3363,0.0797
3364,0.0398
3365,-0.0398
3366,-0.0996
3367,-0.0996
3368,-0.0199
3369,-0.0598
3370,0.0398
3371,0.0598
3372,0.1395
3373,0.0000
3374,-0.0797
3375,-0.1793
3376,-0.1195
3377,-0.1992
3378,-0.1395
3379,0.0000
3380,0.0398
3381,0.0398
3382,0.0797
3383,0.1793
3384,0.1793
3385,0.1793
3386,0.0797
3387,0.0199
3388,-0.0598
3389,-0.2191
3390,-0.2191
3391,-0.0199
3392,0.0398
3393,0.0797
3394,0.0996
3395,0.1793
3396,0.1594
3397,0.1195
3398,0.0797
3399,0.0797
3400,0.0199
3401,-0.1793
3402,-0.1992
3403,-0.1992
3404,-0.1195
3405,-0.1395
3406,-0.0398
3407,0.0797
3408,0.0398
3409,-0.0996
3410,-0.2391
3411,-0.2590
3412,-0.2191
3413,-0.0996
3414,-0.0398
3415,-0.1793
3416,-0.3387
3417,-0.4383
3418,-0.3586
3419,-0.4184
3420,-0.3785
3421,-0.2191
3422,-0.0199
3423,0.0996
3424,0.1992
3425,0.2391
3426,0.1195
3427,0.0000
3428,-0.0199
3429,-0.0797
3430,-0.1195
3431,0.0199
3432,0.1992
3433,0.2590
3434,0.0598
3435,-0.0996
3436,-0.2191
3437,-0.1195
3438,-0.0598
3439,0.0199
3440,0.0797
3441,-0.0398
3442,-0.1793
3443,-0.2789
3444,-0.4383
3445,-0.3188
3446,-0.1992
3447,-0.0199
3448,0.1594
3449,0.1992
3450,0.1992
3451,0.0996
3452,0.0598
3453,-0.0996
3454,-0.1195
3455,-0.2191
3456,-0.3387
3457,-0.2391
3458,-0.0797
3459,0.0598
3460,0.0996
3461,0.0598
3462,0.1395
3463,0.1594
3464,0.1992
3465,0.1594
3466,0.1992
3467,0.2590
3468,0.1793
3469,0.0398
3470,0.0199
3471,0.0199
3472,-0.0398
3473,-0.0398
3474,0.0000
3475,-0.0199
3476,-0.1594
3477,-0.1992
3478,-0.1992
3479,-0.0598
3480,0.0598
3481,0.1395
3482,0.1594
3483,0.1195
3484,0.0199
3485,-0.1195
3486,-0.0797
3487,0.0000
3488,0.0199
3489,0.1395
3490,0.1395
3491,0.1793
3492,0.2191
3493,0.1395
3494,-0.0598
3495,-0.1992
3496,-0.1395
3497,0.0000
3498,0.1195
3499,0.2191
3500,0.1992
3501,-0.0598
3502,-0.0398
3503,0.0398
3504,0.1992
3505,0.1992
3506,0.0797
3507,0.0797
3508,0.0199
3509,-0.0598
3510,-0.0598
3511,0.0199
3512,0.0000
3513,-0.1195
3514,-0.0199
3515,0.1992
3516,0.4582
3517,0.4781
3518,0.4184
3519,0.3586
3520,0.0598
3521,-0.3387
3522,-0.6375
3523,-0.8766
3524,-0.5379
3525,-0.2191
3526,0.0199
3527,0.0598
3528,0.0398
3529,0.1195
3530,0.1793
3531,0.1793
3532,0.1992
3533,0.1793
3534,0.1793
3535,0.0199
3536,0.0996
3537,0.1195
3538,0.0398
3539,0.0598
3540,0.0797
3541,0.0598
3542,0.1195
3543,0.0598
3544,0.0000
3545,-0.0996
3546,-0.0598
3547,-0.1195
3548,-0.0199
3549,0.0398
3550,0.1395
3551,0.0996
3552,0.0398
3553,-0.0598
3554,-0.1594
3555,-0.2590
3556,-0.3387
3557,-0.1992
3558,-0.0598
3559,0.0199
3560,0.0996
3561,0.1594
3562,0.2191
3563,0.1793
3564,0.1195
3565,0.0000
3566,-0.0797
3567,-0.0598
3568,-0.1793
3569,-0.1793
3570,-0.2789
3571,-0.4980
3572,-0.3188
3573,-0.2590
3574,0.0199
3575,0.2590
3576,0.2590
3577,0.1594
3578,0.0000
3579,-0.0199
3580,-0.0797
3581,-0.1793
3582,-0.2191
3583,-0.2391
3584,-0.2391
3585,-0.0199
3586,0.0996
3587,0.1395
3588,0.0598
3589,0.0199
3590,0.1992
3591,0.3188
3592,0.2988
3593,0.2590
3594,0.1395
3595,-0.0996
3596,-0.2191
3597,-0.4582
3598,-0.6773
3599,-0.2988
3600,0.0199
3601,-0.0598
3602,-0.1594
3603,-0.1992
3604,-0.1793
3605,-0.0797
3606,0.0398
3607,0.1992
3608,0.2191
3609,0.2789
3610,0.2988
3611,0.2789
3612,0.2590
3613,0.1793
3614,0.1793
3615,0.0398
3616,-0.1992
3617,-0.2789
3618,-0.1793
3619,-0.1793
3620,-0.3984
3621,-0.2590
3622,-0.0996
3623,-0.0996
3624,-0.0797
3625,-0.0996
3626,-0.0598
3627,-0.0398
3628,0.0598
3629,0.0797
3630,0.0996
3631,0.1594
3632,0.1195
3633,0.0797
3634,0.0398
3635,-0.0797
3636,-0.0199
3637,0.0598
3638,0.0598
3639,0.0996
3640,0.1195
3641,-0.0598
3642,0.0598
3643,-0.0199
3644,0.0000
3645,-0.2590
3646,-0.3387
3647,-0.2391
3648,-0.2590
3649,-0.2988
3650,-0.1793
3651,0.0000
3652,0.0996
3653,0.1195
3654,0.1793
3655,0.1195
3656,0.1793
3657,0.2590
3658,0.3586
3659,0.3984
3660,0.1992
3661,0.1195
3662,-0.1992
3663,-0.3586
3664,-0.4781
3665,-0.3188
3666,-0.1195
3667,0.1594
3668,0.1992
3669,0.1992
3670,0.1793
3671,0.0398
3672,-0.0398
3673,-0.0398
3674,-0.1594
3675,-0.3188
3676,-0.2789
3677,-0.0996
3678,0.1395
3679,0.1195
3680,0.1395
3681,0.2988
3682,0.3586
3683,0.2590
3684,0.1793
3685,0.1992
3686,0.1594
3687,0.0598
3688,-0.2391
3689,-0.4980
3690,-0.3188
3691,-0.4781
3692,-0.2988
3693,-0.0797
3694,0.0398
3695,0.0996
3696,0.1793
3697,0.1594
3698,0.2789
3699,0.3387
3700,0.2590
3701,0.2191
3702,0.1594
3703,0.1594
3704,0.1195
3705,0.0000
3706,0.0199
3707,0.2590
3708,0.2988
3709,0.3387
3710,0.3188
3711,0.2590
3712,0.2391
3713,0.1594
3714,0.0398
3715,-0.0797
3716,-0.0797
3717,-0.0797
3718,-0.1395
3719,-0.0996
3720,-0.0199
3721,0.0598
3722,0.1195
3723,0.0598
3724,0.1594
3725,0.2590
3726,0.2988
3727,0.3188
3728,0.2789
3729,0.1992
3730,0.1594
3731,-0.1395
3732,-0.2590
3733,-0.1793
3734,-0.2789
3735,-0.2391
3736,-0.1195
3737,-0.0797
3738,-0.0996
3739,-0.0996
3740,-0.1195
3741,-0.2391
3742,-0.3387
3743,-0.1992
3744,-0.1195
3745,-0.1793
3746,-0.0199
3747,0.1793
3748,0.2590
3749,0.3387
3750,0.3785
3751,0.4184
3752,0.4184
3753,0.4184
3754,0.4184
3755,0.3188
3756,0.1195
3757,-0.3984
3758,-0.7969
3759,-0.5977
3760,-0.2191
3761,0.0797
3762,0.2590
3763,0.1992
3764,0.2391
3765,0.1793
3766,0.1195
3767,-0.0598
3768,-0.1992
3769,-0.2789
3770,-0.1395
3771,-0.0996
3772,-0.0199
3773,-0.0398
3774,-0.0598
3775,0.0398
3776,0.0996
3777,0.0996
3778,0.0797
3779,0.0598
3780,0.0996
3781,-0.0598
3782,-0.1195
3783,-0.1594
3784,-0.0598
3785,-0.0398
3786,-0.0398
3787,-0.0199
3788,0.0199
3789,0.0797
3790,0.0797
3791,0.0996
3792,0.0797
3793,0.0199
3794,-0.1395
3795,-0.2391
3796,-0.3387
3797,-0.1793
3798,-0.3387
3799,-0.2391
3800,-0.0598
3801,0.0000
3802,0.0797
3803,0.0398
3804,0.1195
3805,0.1195
3806,0.1395
3807,0.1395
3808,0.1195
3809,0.1195
3810,-0.1195
3811,-0.2988
3812,-0.4184
3813,-0.5180
3814,-0.4383
3815,-0.2590
3816,-0.0797
3817,0.0199
3818,0.0996
3819,0.1992
3820,0.1793
3821,0.1395
3822,0.0996
3823,0.0398
3824,-0.0996
3825,-0.1793
3826,-0.1594
3827,-0.1195
3828,-0.0598
3829,0.0000
3830,-0.0598
3831,-0.1793
3832,-0.2590
3833,-0.3586
3834,-0.2988
3835,-0.0398
3836,0.0996
3837,0.0797
3838,0.1195
3839,0.1195
3840,0.0797
3841,0.0996
3842,0.3586
3843,0.2789
3844,0.2391
3845,0.2191
3846,0.0000
3847,-0.0797
3848,-0.2191
3849,-0.2789
3850,-0.3188
3851,-0.4582
3852,-0.2391
3853,0.0797
3854,0.0996
3855,0.0199
3856,0.0199
3857,0.1793
3858,0.2988
3859,0.2789
3860,0.1992
3861,0.1395
3862,-0.0996
3863,-0.2391
3864,-0.3586
3865,-0.5180
3866,-0.2590
3867,-0.1395
3868,-0.0598
3869,0.1195
3870,0.0797
3871,0.1195
3872,0.0797
3873,0.0000
3874,-0.0398
3875,-0.0199
3876,-0.0199
3877,0.0996
3878,0.1195
3879,0.0797
3880,0.0598
3881,0.0398
3882,0.0199
3883,0.0199
3884,0.1395
3885,0.4383
3886,0.6375
3887,0.6375
3888,0.5379
3889,0.2789
3890,-0.0797
3891,-0.2988
3892,-0.6176
3893,-0.9563
3894,-0.6176
3895,-0.3188
3896,0.0000
3897,0.0996
3898,0.1992
3899,0.0398
3900,-0.2391
3901,-0.2191
3902,-0.2191
3903,-0.2191
3904,-0.1793
3905,-0.0996
3906,-0.0797
3907,0.0797
3908,0.0797
3909,0.0797
3910,0.0199
3911,0.0398
3912,0.1793
3913,0.1395
3914,0.1594
3915,0.1992
3916,0.1594
3917,-0.1992
3918,-0.3785
3919,-0.4980
3920,-0.6574
3921,-0.5977
3922,-0.6574
3923,-0.7371
3924,-0.6176
3925,-0.2988
3926,-0.1992
3927,-0.0199
3928,0.0598
3929,0.0398
3930,0.1793
3931,0.1793
3932,0.2590
3933,0.2988
3934,0.2391
3935,0.1395
3936,-0.0199
3937,-0.0598
3938,-0.2789
3939,-0.3785
3940,-0.3387
3941,-0.2191
3942,-0.0199
3943,0.0000
3944,0.0000
3945,0.0398
3946,0.0598
3947,0.0797
3948,0.1594
3949,0.0996
3950,-0.0598
3951,-0.1992
3952,-0.2391
3953,-0.0797
3954,-0.1195
3955,-0.1195
3956,-0.1793
3957,-0.0199
3958,0.1594
3959,0.1395
3960,0.2391
3961,0.1992
3962,0.1992
3963,0.1793
3964,0.1992
3965,0.0398
3966,-0.1395
3967,-0.2391
3968,-0.2988
3969,-0.2789
3970,-0.2191
3971,-0.0398
3972,0.0996
3973,0.1195
3974,0.1992
3975,0.1992
3976,0.0598
3977,0.0797
3978,0.0996
3979,0.0797
3980,-0.0199
3981,0.0199
3982,0.0598
3983,0.0398
3984,-0.0398
3985,-0.0797
3986,-0.2391
3987,-0.1793
3988,-0.1793
3989,0.0398
3990,0.3188
3991,0.4980
3992,0.2988
3993,0.0000
3994,-0.2391
3995,-0.4582
3996,-0.5578
3997,-0.6375
3998,-0.6773
3999,-0.3984
4000,-0.1395
4001,0.0000
4002,0.0996
4003,0.1793
4004,0.2789
4005,0.3785
4006,0.4781
4007,0.5777
4008,0.4582
4009,0.1793
4010,-0.0199
4011,-0.3984
4012,-0.6574
4013,-0.6773
4014,-0.3785
4015,-0.0598
4016,0.0199
4017,-0.0199
4018,-0.0199
4019,-0.0199
4020,0.0199
4021,-0.0398
4022,0.0000
4023,0.0996
4024,0.1594
4025,0.1195
4026,0.0398
4027,0.0797
4028,0.2391
4029,0.1992
4030,0.1395
4031,0.0598
4032,0.0000
4033,-0.1395
4034,-0.0598
4035,0.0000
4036,0.0797
4037,0.2590
4038,0.3785
4039,0.4383
4040,0.3188
4041,0.0996
4042,-0.0199
4043,0.0000
4044,0.0199
4045,-0.0797
4046,-0.1594
4047,-0.1395
4048,-0.1395
4049,-0.0996
4050,0.0199
4051,0.0398
4052,0.0199
4053,0.0797
4054,0.1793
4055,0.2988
4056,0.1793
4057,0.1195
4058,0.1992
4059,0.1992
4060,0.0996
4061,-0.2391
4062,-0.3387
4063,-0.1992
4064,0.0398
4065,0.1793
4066,0.1594
4067,0.2391
4068,0.0398
4069,0.0598
4070,0.0598
4071,0.0199
4072,0.0000
4073,0.0398
4074,0.2191
4075,0.1395
4076,0.0000
4077,-0.0398
4078,-0.2988
4079,-0.4781
4080,-0.3984
4081,-0.1395
4082,-0.0797
4083,0.0996
4084,0.0797
4085,0.1793
4086,0.1395
4087,0.1195
4088,0.1793
4089,0.0199
4090,0.0199
4091,0.0996
4092,-0.0199
4093,-0.1992
4094,-0.1793
4095,-0.1594
4096,-0.2789
4097,-0.1395
4098,-0.0996
4099,-0.0398
4100,0.1594
4101,0.2191
4102,0.2191
4103,0.1992
4104,0.0797
4105,-0.0797
4106,-0.1594
4107,-0.0398
4108,0.1195
4109,0.2191
4110,0.3188
4111,0.2391
4112,0.0199
4113,-0.0797
4114,-0.0199
4115,-0.0598
4116,0.0199
4117,0.0996
4118,0.1395
4119,0.1395
4120,0.1395
4121,0.0797
4122,0.0000
4123,-0.0598
4124,0.0398
4125,0.1195
4126,0.0398
4127,-0.0996
4128,0.0996
4129,0.1594
4130,0.2789
4131,0.2988
4132,0.2391
4133,0.0598
4134,-0.0598
4135,-0.2391
4136,-0.3984
4137,-0.5180
4138,-0.3984
4139,-0.1594
4140,-0.0199
4141,0.2191
4142,0.2191
4143,0.2391
4144,0.2391
4145,0.1395
4146,0.0996
4147,-0.0797
4148,-0.0996
4149,-0.0199
4150,0.1395
4151,0.2191
4152,0.0996
4153,0.1395
4154,0.2391
4155,0.1793
4156,0.1992
4157,0.2191
4158,0.1195
4159,-0.1594
4160,-0.3387
4161,-0.7371
4162,-0.6574
4163,-0.5180
4164,-0.3984
4165,-0.2391
4166,-0.1793
4167,-0.0199
4168,0.1395
4169,0.2391
4170,0.1793
4171,0.0996
4172,0.0996
4173,0.0398
4174,0.0000
4175,0.0996
4176,0.0598
4177,0.0797
4178,-0.0398
4179,-0.0797
4180,-0.0199
4181,-0.0398
4182,0.0797
4183,0.0398
4184,-0.0398
4185,-0.0398
4186,-0.0598
4187,-0.1594
4188,-0.1195
4189,-0.1195
4190,-0.1195
4191,-0.2191
4192,-0.2590
4193,-0.2391
4194,-0.0199
4195,0.0797
4196,0.0996
4197,0.0996
4198,0.0000
4199,0.0199
4200,-0.0996
4201,-0.2391
4202,-0.4184
4203,-0.5180
4204,-0.4781
4205,-0.3188
4206,-0.2988
4207,-0.1594
4208,-0.1195
4209,-0.0199
4210,0.1195
4211,0.2391
4212,0.2988
4213,0.2590
4214,0.1992
4215,0.1195
4216,-0.0598
4217,-0.3984
4218,-0.5777
4219,-0.2988
4220,-0.1395
4221,0.0398
4222,0.1395
4223,0.3586
4224,0.4781
4225,0.5379
4226,0.4781
4227,0.3188
4228,-0.0996
4229,-0.3984
4230,-0.5379
4231,-0.4980
4232,-0.1793
4233,0.0398
4234,0.1195
4235,0.2391
4236,0.2789
4237,0.2391
4238,0.0797
4239,-0.0199
4240,-0.0398
4241,-0.1793
4242,-0.3984
4243,-0.3188
4244,-0.2391
4245,-0.3188
4246,-0.2789
4247,-0.0996
4248,0.0996
4249,0.3586
4250,0.4582
4251,0.5578
4252,0.5977
4253,0.3387
4254,0.2191
4255,-0.0398
4256,-0.4184
4257,-0.6574
4258,-0.4980
4259,-0.3785
4260,-0.2391
4261,-0.2191
4262,0.0199
4263,0.0598
4264,0.1395
4265,0.0996
4266,0.1992
4267,0.2191
4268,0.3586
4269,0.3586
4270,0.1195
4271,0.0996
4272,0.0000
4273,-0.0797
4274,-0.2391
4275,-0.4582
4276,-0.4383
4277,-0.2988
4278,-0.0797
4279,0.1594
4280,0.2391
4281,0.1992
4282,0.1395
4283,0.0797
4284,0.0199
4285,0.0996
4286,0.1594
4287,0.0996
4288,-0.0398
4289,0.1395
4290,0.2590
4291,0.0797
4292,-0.0199
4293,-0.0598
4294,-0.0398
4295,-0.1195
4296,-0.0199
4297,0.0797
4298,0.1793
4299,0.2789
4300,0.3586
4301,0.2988
4302,0.2789
4303,0.2391
4304,0.2391
4305,0.1992
4306,0.2590
4307,0.4383
4308,0.1793
4309,-0.3188
4310,-0.3785
4311,-0.3785
4312,-0.2988
4313,-0.1992
4314,0.0199
4315,0.0996
4316,0.1594
4317,0.3188
4318,0.3984
4319,0.4383
4320,0.4184
4321,0.1793
4322,0.1992
4323,0.2988
4324,0.1793
4325,-0.0996
4326,-0.1395
4327,-0.1793
4328,-0.3188
4329,-0.2789
4330,-0.2590
4331,-0.1594
4332,-0.0797
4333,0.2391
4334,0.4383
4335,0.5777
4336,0.6375
4337,0.4781
4338,0.3188
4339,0.1195
4340,-0.2391
4341,-0.4582
4342,-0.5977
4343,-0.4184
4344,-0.3586
4345,-0.3188
4346,-0.1594
4347,-0.0598
4348,-0.0199
4349,0.0598
4350,0.1195
4351,0.0996
4352,0.0598
4353,-0.0199
4354,-0.0996
4355,-0.1594
4356,-0.3387
4357,-0.2789
4358,-0.0996
4359,0.0199
4360,0.0598
4361,0.0598
4362,0.0199
4363,0.1195
4364,0.1195
4365,0.0996
4366,0.1992
4367,0.1992
4368,0.1594
4369,0.0398
4370,-0.0797
4371,-0.2191
4372,-0.3387
4373,-0.3984
4374,-0.4383
4375,-0.3586
4376,-0.1594
4377,-0.2191
4378,-0.2590
4379,-0.1594
4380,0.0000
4381,0.0000
4382,0.0199
4383,-0.1594
4384,-0.2391
4385,-0.1992
4386,-0.1793
4387,-0.1992
4388,-0.2191
4389,-0.2191
4390,-0.1195
4391,-0.0996
4392,0.0199
4393,0.0398
4394,0.0996
4395,0.1594
4396,0.1395
4397,-0.0398
4398,-0.3984
4399,-0.5977
4400,-0.5180
4401,-0.3984
4402,-0.1793
4403,0.1793
4404,0.3785
4405,0.4582
4406,0.4184
4407,0.2988
4408,0.1992
4409,-0.2789
4410,-0.3586
4411,-0.1992
4412,-0.1793
4413,-0.3984
4414,-0.2988
4415,-0.2191
4416,-0.2391
4417,-0.0398
4418,0.0000
4419,0.0398
4420,0.1195
4421,0.1793
4422,0.1992
4423,0.3188
4424,0.0996
4425,-0.1195
4426,-0.2391
4427,-0.3188
4428,-0.1594
4429,-0.1195
4430,-0.0199
4431,0.2391
4432,0.4781
4433,0.4184
4434,0.3188
4435,0.1395
4436,-0.3984
4437,-0.7371
4438,-0.6574
4439,-0.5777
4440,-0.4184
4441,-0.1793
4442,0.0000
4443,0.0000
4444,0.0797
4445,0.0199
4446,0.0797
4447,0.1793
4448,0.2391
4449,0.2590
4450,0.2590
4451,0.0797
4452,0.0199
4453,-0.0797
4454,-0.0199
4455,-0.1793
4456,-0.2988
4457,-0.2191
4458,-0.0398
4459,0.0996
4460,0.2391
4461,0.1793
4462,0.1195
4463,0.1992
4464,0.2590
4465,0.1793
4466,-0.1195
4467,-0.2590
4468,-0.2789
4469,-0.1992
4470,-0.0598
4471,0.0000
4472,-0.0199
4473,-0.0598
4474,-0.1195
4475,-0.1594
4476,0.0000
4477,0.1395
4478,0.1793
4479,0.1395
4480,0.1992
4481,0.2391
4482,0.2191
4483,0.2590
4484,0.2590
4485,0.2590
4486,0.1992
4487,0.0398
4488,-0.1395
4489,-0.1594
4490,-0.2391
4491,-0.3785
4492,-0.2988
4493,-0.2590
4494,-0.2191
4495,-0.0598
4496,0.0996
4497,0.2191
4498,0.2590
4499,0.2191
4500,0.1195
4501,-0.1992
4502,-0.1793
4503,-0.1793
4504,-0.2391
4505,-0.0199
4506,-0.0199
4507,-0.0598
4508,-0.0996
4509,0.0000
4510,0.0996
4511,0.1992
4512,0.1195
4513,0.1793
4514,0.1395
4515,-0.1793
4516,-0.4383
4517,-0.1594
4518,-0.0598
4519,-0.0996
4520,-0.2391
4521,-0.1793
4522,-0.2391
4523,-0.1395
4524,-0.2191
4525,-0.1395
4526,-0.0199
4527,-0.0598
4528,-0.0797
4529,-0.2191
4530,-0.3387
4531,-0.3387
4532,-0.1395
4533,-0.0199
4534,0.0797
4535,0.1793
4536,0.2988
4537,0.2988
4538,0.2191
4539,0.2191
4540,0.1594
4541,-0.0398
4542,-0.1395
4543,-0.0199
4544,0.0996
4545,0.1195
4546,0.1195
4547,0.2590
4548,0.2391
4549,0.2391
4550,0.1594
4551,0.1395
4552,0.2391
4553,0.2191
4554,0.2191
4555,0.1992
4556,0.2590
4557,0.3785
4558,0.2391
4559,0.1594
4560,0.2191
4561,0.2391
4562,0.2391
4563,0.1594
4564,0.0598
4565,-0.0598
4566,-0.2391
4567,-0.3984
4568,-0.0996
4569,0.0398
4570,0.1793
4571,0.3188
4572,0.3586
4573,0.3387
4574,0.3984
4575,0.4781
4576,0.5180
4577,0.4582
4578,0.3586
4579,0.0398
4580,-0.3188
4581,-0.3785
4582,-0.2789
4583,-0.1793
4584,0.1195
4585,0.2391
4586,0.2789
4587,0.1395
4588,0.0199
4589,0.0199
4590,-0.1594
4591,-0.0598
4592,-0.0598
4593,-0.1395
4594,-0.1395
4595,-0.2391
4596,-0.1594
4597,-0.1992
4598,-0.3387
4599,-0.2789
4600,-0.0598
4601,0.0996
4602,0.2391
4603,0.2590
4604,0.2988
4605,0.1395
4606,-0.0598
4607,-0.1793
4608,-0.2988
4609,-0.2391
4610,-0.0996
4611,-0.1395
4612,-0.0797
4613,-0.0996
4614,-0.0797
4615,-0.0398
4616,0.0598
4617,0.1395
4618,0.1195
4619,0.0199
4620,0.0598
4621,-0.0398
4622,-0.1793
4623,-0.2191
4624,-0.1395
4625,-0.0996
4626,0.0996
4627,0.1594
4628,0.2391
4629,0.2391
4630,0.1793
4631,0.1195
4632,0.0000
4633,-0.1793
4634,-0.2590
4635,-0.1793
4636,-0.1594
4637,-0.1395
4638,-0.2590
4639,-0.3785
4640,-0.2988
4641,-0.1195
4642,-0.0398
4643,0.0398
4644,0.0598
4645,0.0000
4646,-0.0199
4647,-0.1594
4648,-0.1992
4649,-0.1992
4650,-0.2789
4651,-0.2988
4652,-0.1992
4653,-0.2391
4654,-0.1992
4655,-0.1594
4656,0.0000
4657,0.1793
4658,0.1395
4659,-0.0996
4660,-0.4184
4661,-0.5180
4662,-0.2191
4663,-0.3586
4664,-0.4184
4665,-0.2988
4666,-0.3188
4667,-0.3785
4668,-0.2590
4669,-0.0996
4670,0.0199
4671,0.0996
4672,0.3387
4673,0.3188
4674,0.1992
4675,0.0398
4676,-0.0398
4677,-0.1793
4678,-0.2590
4679,-0.3387
4680,0.0398
4681,0.2789
4682,0.3586
4683,0.4184
4684,0.4383
4685,0.1793
4686,-0.2191
4687,-0.4980
4688,-0.6574
4689,-0.4383
4690,-0.3188
4691,-0.2191
4692,-0.2988
4693,-0.1793
4694,0.0598
4695,0.1395
4696,-0.0398
4697,0.1395
4698,0.2391
4699,0.4184
4700,0.6176
4701,0.6375
4702,0.5977
4703,0.4582
4704,0.1195
4705,-0.1395
4706,-0.5977
4707,-0.8965
4708,-0.9563
4709,-0.5379
4710,-0.4781
4711,-0.2590
4712,-0.1395
4713,0.0000
4714,0.1992
4715,0.3188
4716,0.2988
4717,0.3188
4718,0.2191
4719,0.2590
4720,0.0598
4721,-0.1594
4722,-0.3586
4723,-0.4781
4724,-0.3785
4725,-0.2391
4726,-0.3188
4727,-0.1594
4728,-0.0199
4729,0.0797
4730,0.1395
4731,0.0996
4732,0.0996
4733,0.0797
4734,0.0398
4735,0.0598
4736,0.0996
4737,0.1594
4738,0.1395
4739,0.0398
4740,0.0199
4741,-0.0199
4742,-0.0398
4743,-0.0199
4744,0.0199
4745,0.0398
4746,0.1992
4747,0.3785
4748,0.1793
4749,0.0000
4750,0.0000
4751,0.1395
4752,0.2590
4753,0.3188
4754,0.2789
4755,0.2988
4756,0.2391
4757,0.1594
4758,0.0598
4759,-0.0797
4760,-0.2988
4761,-0.3984
4762,-0.2191
4763,-0.0797
4764,0.1395
4765,0.3188
4766,0.4980
4767,0.4980
4768,0.3387
4769,0.3387
4770,0.1992
4771,-0.1793
4772,-0.2789
4773,-0.1793
4774,0.0199
4775,0.1594
4776,0.0598
4777,-0.1992
4778,-0.3984
4779,-0.2391
4780,-0.1793
4781,-0.1793
4782,-0.0398
4783,0.0598
4784,0.0598
4785,0.1793
4786,0.2391
4787,0.1395
4788,0.0398
4789,-0.0199
4790,-0.0398
4791,-0.1195
4792,-0.3586
4793,-0.2789
4794,-0.2391
4795,-0.3387
4796,-0.2590
4797,-0.1395
4798,0.0199
4799,-0.0199
4800,-0.0797
4801,-0.0199
4802,0.0598
4803,0.0996
4804,0.0996
4805,0.0398
4806,-0.0398
4807,-0.0797
4808,-0.1395
4809,-0.1395
4810,-0.1195
4811,-0.1195
4812,-0.0797
4813,0.0199
4814,0.1992
4815,0.2590
4816,0.2391
4817,0.2988
4818,0.2789
4819,0.2789
4820,0.1992
4821,0.0398
4822,-0.0398
4823,-0.2191
4824,-0.2590
4825,-0.1793
4826,-0.0598
4827,0.1395
4828,0.3387
4829,0.3387
4830,0.3387
4831,0.3785
4832,0.3586
4833,0.1594
4834,-0.1195
4835,-0.0996
4836,-0.1195
4837,-0.2191
4838,-0.2988
4839,-0.1594
4840,0.0000
4841,0.0598
4842,0.0996
4843,0.0000
4844,-0.1195
4845,-0.1793
4846,-0.2590
4847,-0.2391
4848,-0.0996
4849,0.0199
4850,0.1395
4851,0.1793
4852,0.2590
4853,0.4184
4854,0.5578
4855,0.5977
4856,0.6176
4857,0.4980
4858,0.3984
4859,0.1992
4860,-0.1594
4861,-0.3785
4862,-0.6375
4863,-0.6574
4864,-0.6574
4865,-0.3586
4866,-0.3387
4867,-0.3387
4868,-0.2590
4869,-0.2191
4870,-0.1594
4871,-0.1594
4872,-0.0996
4873,-0.1594
4874,-0.0996
4875,-0.0398
4876,0.0000
4877,0.0598
4878,0.0996
4879,0.0996
4880,0.3188
4881,0.3984
4882,0.2789
4883,0.3188
4884,0.2590
4885,0.0598
4886,-0.0996
4887,-0.2789
4888,-0.4980
4889,-0.5379
4890,-0.4383
4891,-0.3586
4892,-0.2391
4893,-0.0398
4894,0.1395
4895,0.1992
4896,0.2988
4897,0.4383
4898,0.3984
4899,0.3188
4900,0.1395
4901,-0.2191
4902,-0.2789
4903,-0.3387
4904,-0.2391
4905,-0.2988
4906,-0.1195
4907,0.1594
4908,0.3188
4909,0.3188
4910,0.2988
4911,0.0598
4912,0.0797
4913,-0.0797
4914,-0.0996
4915,-0.1594
4916,-0.2988
4917,-0.3188
4918,-0.2191
4919,-0.1195
4920,-0.0398
4921,-0.1793
4922,-0.2391
4923,-0.1793
4924,-0.0797
4925,0.0797
4926,0.0797
4927,0.0598
4928,0.0199
4929,-0.0996
4930,-0.2988
4931,-0.4184
4932,-0.2590
4933,-0.0996
4934,-0.0199
4935,0.0199
4936,0.0398
4937,0.0598
4938,0.0398
4939,-0.0199
4940,0.0398
4941,0.0996
4942,0.1793
4943,0.1793
4944,0.2391
4945,0.1594
4946,0.0398
4947,-0.0797
4948,-0.3387
4949,-0.4980
4950,-0.3586
4951,-0.2391
4952,-0.0797
4953,0.1395
4954,0.2391
4955,0.2391
4956,0.2789
4957,0.3188
4958,0.2590
4959,0.2789
4960,0.3387
4961,0.2191
4962,0.1195
4963,0.1793
4964,0.1793
4965,0.0598
4966,-0.0398
4967,-0.1395
4968,-0.3387
4969,-0.2988
4970,-0.1594
4971,-0.0398
4972,0.0199
4973,0.0797
4974,0.1793
4975,0.1793
4976,0.0797
4977,0.1395
4978,0.2988
4979,0.5379
4980,0.6773
4981,0.6574
4982,0.4980
4983,0.3387
4984,0.1395
4985,-0.2391
4986,-0.3984
4987,-0.7570
4988,-0.6375
4989,-0.4184
4990,-0.1195
4991,-0.0199
4992,0.0398
4993,-0.0398
4994,-0.1992
4995,-0.2391
4996,-0.0598
4997,0.0996
4998,0.2391
4999,0.2191
5000,0.2391
5001,0.3188
5002,0.2391
5003,0.1195
5004,0.0199
5005,-0.1195
5006,-0.1992
5007,-0.1793
5008,-0.2590
5009,-0.0398
5010,0.1195
5011,0.2789
5012,0.3188
5013,0.2789
5014,0.3188
5015,0.3984
5016,0.2590
5017,0.1395
5018,-0.0797
5019,-0.1793
5020,-0.1793
5021,-0.1793
5022,-0.1992
5023,-0.3188
5024,-0.2391
5025,-0.2191
5026,-0.1594
5027,-0.1195
5028,-0.0797
5029,0.0398
5030,0.1395
5031,0.2191
5032,0.2789
5033,0.3387
5034,0.3785
5035,0.3586
5036,0.2789
5037,0.1793
5038,0.0398
5039,-0.0996
5040,-0.2590
5041,-0.4582
5042,-0.3586
5043,-0.3785
5044,-0.2590
5045,-0.1594
5046,-0.0398
5047,0.1793
5048,0.2988
5049,0.5180
5050,0.6574
5051,0.6574
5052,0.5578
5053,0.3387
5054,0.0398
5055,-0.1395
5056,-0.2590
5057,-0.5578
5058,-0.6375
5059,-0.5379
5060,-0.4184
5061,-0.1195
5062,0.0199
5063,0.0598
5064,0.1195
5065,0.0797
5066,0.0000
5067,0.0000
5068,-0.0598
5069,0.0398
5070,0.0797
5071,0.1195
5072,0.2191
5073,0.1395
5074,0.1395
5075,0.1793
5076,0.1793
5077,0.2191
5078,0.0398
5079,-0.1594
5080,-0.2590
5081,-0.7172
5082,-0.7172
5083,-0.3785
5084,-0.1793
5085,-0.1992
5086,0.0398
5087,0.2391
5088,0.3188
5089,0.1992
5090,0.0398
5091,-0.0598
5092,-0.1395
5093,-0.1594
5094,-0.2590
5095,-0.3188
5096,-0.2789
5097,-0.0797
5098,0.0398
5099,-0.0199
5100,-0.1594
5101,-0.0797
5102,-0.0598
5103,-0.0797
5104,-0.0598
5105,-0.1594
5106,-0.1395
5107,-0.0199
5108,0.0000
5109,-0.0797
5110,-0.0598
5111,-0.0996
5112,-0.0797
5113,-0.1395
5114,-0.0797
5115,-0.0797
5116,-0.0199
5117,0.0199
5118,-0.0398
5119,0.0199
5120,0.1195
5121,0.0797
5122,0.0797
5123,0.1195
5124,0.3387
5125,0.3984
5126,0.4383
5127,0.4184
5128,0.2590
5129,-0.0199
5130,-0.1793
5131,-0.2391
5132,-0.2789
5133,-0.1793
5134,-0.1793
5135,-0.1793
5136,-0.0199
5137,-0.0199
5138,-0.1195
5139,-0.1594
5140,-0.0398
5141,0.0000
5142,0.1594
5143,0.1793
5144,0.0797
5145,-0.0598
5146,-0.1395
5147,-0.1992
5148,-0.1992
5149,-0.1395
5150,-0.0398
5151,-0.1195
5152,-0.0199
5153,0.0797
5154,0.0000
5155,-0.1594
5156,-0.2789
5157,-0.3188
5158,-0.4383
5159,-0.2789
5160,-0.0598
5161,0.0398
5162,0.0199
5163,0.0598
5164,0.1992
5165,0.2789
5166,0.2789
5167,0.1992
5168,-0.1992
5169,-0.3984
5170,-0.5379
5171,-0.5578
5172,-0.2988
5173,-0.2590
5174,-0.2191
5175,-0.1395
5176,-0.0199
5177,0.0398
5178,0.1195
5179,0.2988
5180,0.4582
5181,0.4980
5182,0.4980
5183,0.4781
5184,0.1195
5185,-0.2789
5186,-0.5977
5187,-0.6375
5188,-0.5578
5189,-0.4781
5190,-0.2191
5191,-0.0996
5192,-0.0398
5193,0.0398
5194,-0.0797
5195,-0.1793
5196,-0.0398
5197,0.0398
5198,0.1195
5199,0.2988
5200,0.2988
5201,0.1793
5202,0.1793
5203,0.0797
5204,0.1793
5205,0.1793
5206,0.0996
5207,0.1395
5208,0.0797
5209,0.0199
5210,-0.0199
5211,0.0000
5212,-0.0199
5213,-0.0797
5214,-0.0996
5215,-0.0598
5216,-0.0199
5217,0.0398
5218,0.1395
5219,0.2191
5220,0.1594
5221,0.0598
5222,0.0000
5223,0.0000
5224,0.0598
5225,-0.0598
5226,-0.0797
5227,-0.0199
5228,0.0598
5229,0.1395
5230,0.2191
5231,0.2988
5232,0.1195
5233,-0.1195
5234,-0.2988
5235,-0.4980
5236,-0.5977
5237,-0.5180
5238,-0.2988
5239,0.0996
5240,0.2988
5241,0.3586
5242,-0.0199
5243,-0.1992
5244,-0.3586
5245,-0.5379
5246,-0.5379
5247,-0.3188
5248,-0.1195
5249,0.1594
5250,0.2590
5251,0.3785
5252,0.3586
5253,0.3387
5254,0.3387
5255,0.2391
5256,0.0598
5257,-0.1395
5258,-0.4383
5259,-0.3785
5260,-0.2590
5261,-0.2590
5262,-0.0199
5263,-0.0598
5264,-0.0996
5265,-0.0996
5266,-0.2789
5267,-0.2988
5268,-0.1992
5269,-0.1395
5270,-0.0199
5271,-0.0398
5272,-0.0797
5273,-0.2191
5274,-0.2191
5275,-0.2789
5276,-0.1395
5277,0.0797
5278,0.1195
5279,0.0797
5280,0.3188
5281,0.3984
5282,0.2988
5283,0.1594
5284,0.0199
5285,0.0000
5286,0.0199
5287,0.0797
5288,0.1793
5289,0.2191
5290,0.1793
5291,-0.0398
5292,-0.2789
5293,-0.0797
5294,-0.0996
5295,-0.0598
5296,-0.0598
5297,0.0199
5298,0.0000
5299,-0.0398
5300,-0.0598
5301,-0.1594
5302,-0.0996
5303,-0.0199
5304,0.0598
5305,0.0797
5306,0.0598
5307,0.0797
5308,0.0199
5309,0.1195
5310,0.1195
5311,0.1195
5312,0.2391
5313,0.1195
5314,0.0797
5315,0.0398
5316,-0.0199
5317,-0.0398
5318,-0.0996
5319,-0.0199
5320,0.0996
5321,0.2590
5322,0.4184
5323,0.3188
5324,0.0797
5325,-0.0797
5326,-0.1594
5327,-0.1992
5328,-0.1992
5329,-0.3387
5330,-0.1793
5331,-0.0598
5332,0.0598
5333,0.1594
5334,0.2789
5335,0.2590
5336,0.1793
5337,0.0398
5338,-0.0199
5339,-0.1195
5340,-0.1594
5341,-0.2789
5342,-0.3785
5343,-0.4980
5344,-0.4781
5345,-0.3785
5346,-0.1195
5347,0.1594
5348,0.2590
5349,0.2988
5350,0.2789
5351,0.2789
5352,0.0598
5353,-0.3188
5354,-0.3984
5355,-0.4383
5356,-0.1793
5357,-0.0598
5358,-0.1195
5359,0.0199
5360,0.0000
5361,-0.0797
5362,-0.0996
5363,-0.0996
5364,-0.1594
5365,-0.1793
5366,-0.1195
5367,-0.2789
5368,-0.3188
5369,-0.1793
5370,-0.0598
5371,0.1395
5372,0.2391
5373,0.3188
5374,0.3785
5375,0.4184
5376,0.2988
5377,0.0199
5378,-0.0598
5379,-0.1195
5380,-0.1395
5381,-0.0996
5382,0.0199
5383,0.0797
5384,0.0797
5385,-0.1793
5386,-0.2391
5387,0.0000
5388,0.0797
5389,0.2391
5390,0.1594
5391,0.1395
5392,0.1594
5393,0.1793
5394,0.0996
5395,-0.0797
5396,-0.1395
5397,-0.0598
5398,-0.0398
5399,0.0398
5400,0.0996
5401,0.1992
5402,0.2590
5403,0.1992
5404,0.2191
5405,0.1793
5406,0.1395
5407,0.1195
5408,0.0996
5409,0.1594
5410,0.1793
5411,0.1195
5412,0.1992
5413,0.0996
5414,-0.0199
5415,-0.1195
5416,0.0000
5417,0.0000
5418,-0.0398
5419,0.1195
5420,0.2191
5421,0.2391
5422,0.1195
5423,0.0199
5424,-0.0797
5425,-0.1395
5426,-0.3387
5427,-0.2988
5428,-0.2789
5429,-0.1992
5430,-0.1195
5431,0.1594
5432,0.3785
5433,0.4781
5434,0.4980
5435,0.3387
5436,0.3387
5437,0.2191
5438,0.0000
5439,-0.3984
5440,-0.9563
5441,-1.0160
5442,-0.7371
5443,-0.4184
5444,-0.0398
5445,0.1195
5446,0.0598
5447,0.0598
5448,-0.0598
5449,-0.1793
5450,-0.1992
5451,-0.3785
5452,-0.3785
5453,-0.1793
5454,0.0199
5455,0.0398
5456,0.0996
5457,0.1594
5458,0.1793
5459,0.1195
5460,0.1395
5461,-0.0598
5462,-0.0797
5463,-0.0598
5464,0.0797
5465,0.0398
5466,0.0398
5467,0.0598
5468,0.1195
5469,0.0996
5470,0.1195
5471,0.1195
5472,0.0797
5473,0.0398
5474,0.0598
5475,0.1195
5476,0.0398
5477,-0.0199
5478,-0.1594
5479,-0.2191
5480,-0.3188
5481,-0.2391
5482,-0.1395
5483,-0.1793
5484,-0.1992
5485,-0.0598
5486,0.1594
5487,0.2191
5488,0.2191
5489,0.1992
5490,0.1793
5491,0.2191
5492,0.2391
5493,0.1793
5494,0.1992
5495,0.0797
5496,0.0199
5497,-0.0598
5498,-0.1195
5499,0.0199
5500,0.0797
5501,0.1594
5502,0.0996
5503,0.2391
5504,0.3188
5505,0.1793
5506,0.1195
5507,-0.0199
5508,-0.0199
5509,-0.0199
5510,-0.1793
5511,-0.1395
5512,-0.0598
5513,-0.1195
5514,-0.1793
5515,-0.1992
5516,0.0000
5517,0.1793
5518,0.1395
5519,0.1395
5520,0.0398
5521,0.0797
5522,0.1395
5523,-0.0199
5524,-0.0398
5525,0.0000
5526,0.1992
5527,0.2789
5528,0.1395
5529,0.0000
5530,-0.0996
5531,-0.1992
5532,-0.2391
5533,-0.1992
5534,-0.2590
5535,-0.1195
5536,0.0199
5537,0.1395
5538,0.1992
5539,0.1793
5540,0.0996
5541,-0.1594
5542,-0.1195
5543,-0.2191
5544,-0.4781
5545,-0.5578
5546,-0.3586
5547,-0.0996
5548,-0.0199
5549,0.0996
5550,0.1195
5551,0.0598
5552,0.1395
5553,0.0797
5554,0.0996
5555,0.0996
5556,0.0598
5557,0.0398
5558,0.0199
5559,0.1195
5560,0.1992
5561,0.1395
5562,0.2590
5563,0.2988
5564,0.1793
5565,0.0797
5566,-0.3387
5567,-0.3984
5568,-0.2988
5569,-0.3785
5570,-0.2590
5571,-0.0598
5572,0.0996
5573,0.1195
5574,0.1195
5575,0.1594
5576,0.1395
5577,0.1195
5578,0.0398
5579,-0.0199
5580,0.1195
5581,0.1195
5582,0.1395
5583,0.0000
5584,-0.0598
5585,-0.0598
5586,0.0598
5587,0.2590
5588,0.3785
5589,0.3387
5590,0.1793
5591,0.1992
5592,0.1395
5593,-0.0398
5594,-0.2789
5595,-0.1992
5596,-0.1395
5597,-0.1992
5598,0.0000
5599,0.1992
5600,0.3785
5601,0.3984
5602,0.3785
5603,0.1793
5604,-0.0199
5605,-0.0996
5606,-0.1992
5607,-0.2789
5608,-0.5379
5609,-0.5379
5610,-0.3387
5611,-0.2391
5612,-0.0996
5613,0.0398
5614,0.0598
5615,0.2191
5616,0.2988
5617,0.2191
5618,0.0000
5619,-0.2191
5620,-0.3785
5621,-0.3188
5622,-0.3188
5623,-0.3586
5624,-0.1395
5625,-0.1395
5626,-0.1395
5627,-0.1195
5628,-0.0598
5629,-0.0797
5630,-0.2590
5631,-0.4582
5632,-0.5180
5633,-0.3188
5634,-0.2191
5635,-0.1992
5636,-0.1195
5637,-0.0199
5638,0.1793
5639,0.0598
5640,0.0000
5641,-0.0398
5642,-0.0398
5643,-0.0199
5644,-0.0398
5645,-0.0996
5646,-0.2191
5647,-0.1992
5648,-0.0797
5649,0.0398
5650,0.0598
5651,0.0398
5652,0.0199
5653,-0.0598
5654,-0.1395
5655,-0.0996
5656,0.1395
5657,0.1594
5658,0.1195
5659,0.1195
5660,0.1594
5661,0.1395
5662,0.0598
5663,-0.0398
5664,-0.0199
5665,-0.0398
5666,0.0000
5667,0.0000
5668,0.0598
5669,0.0199
5670,0.0000
5671,-0.0996
5672,-0.1594
5673,-0.0797
5674,0.0598
5675,0.1594
5676,0.0996
5677,-0.0598
5678,-0.0598
5679,-0.2391
5680,-0.4184
5681,-0.1594
5682,0.0996
5683,0.1195
5684,0.2789
5685,0.3387
5686,0.3387
5687,0.4184
5688,0.2191
5689,-0.1793
5690,-0.5777
5691,-0.3586
5692,-0.2590
5693,-0.1195
5694,-0.3586
5695,-0.5977
5696,-0.5578
5697,-0.4383
5698,-0.1195
5699,0.1195
5700,0.3387
5701,0.4980
5702,0.4781
5703,0.2789
5704,0.1594
5705,-0.1793
5706,-0.2789
5707,-0.3586
5708,-0.1395
5709,-0.0598
5710,0.0000
5711,-0.0598
5712,-0.0398
5713,-0.0199
5714,-0.0199
5715,-0.0199
5716,0.0598
5717,0.0000
5718,-0.0398
5719,0.0598
5720,0.0598
5721,0.0398
5722,0.0996
5723,0.0797
5724,0.0996
5725,0.2191
5726,0.3188
5727,0.3785
5728,0.3188
5729,0.1793
5730,-0.0996
5731,-0.3387
5732,-0.2988
5733,-0.0598
5734,0.1195
5735,0.0199
5736,-0.0398
5737,-0.0199
5738,-0.1793
5739,-0.2789
5740,-0.3387
5741,-0.3586
5742,-0.1992
5743,-0.0996
5744,0.0000
5745,0.0996
5746,0.1594
5747,0.3188
5748,0.4582
5749,0.5379
5750,0.4184
5751,0.2191
5752,0.0398
5753,-0.1793
5754,-0.4184
5755,-0.3586
5756,-0.3387
5757,-0.1395
5758,-0.1594
5759,0.0000
5760,0.1793
5761,0.2191
5762,0.4184
5763,0.5777
5764,0.5977
5765,0.3785
5766,0.0398
5767,-0.1793
5768,-0.4582
5769,-0.5977
5770,-0.5180
5771,-0.3586
5772,-0.1594
5773,-0.0996
5774,-0.1395
5775,0.0996
5776,0.2391
5777,0.5180
5778,0.7570
5779,0.7371
5780,0.6375
5781,0.4781
5782,0.3188
5783,-0.3785
5784,-0.9961
5785,-1.0359
5786,-0.7770
5787,-0.5777
5788,-0.4383
5789,-0.2191
5790,0.0598
5791,0.2789
5792,0.4582
5793,0.5180
5794,0.4980
5795,0.2191
5796,-0.0199
5797,-0.1395
5798,-0.2191
5799,-0.3785
5800,-0.3586
5801,-0.2988
5802,-0.2391
5803,-0.0996
5804,0.1395
5805,0.1195
5806,0.1195
5807,0.1793
5808,0.2191
5809,0.2391
5810,0.0398
5811,-0.1793
5812,-0.1793
5813,-0.3586
5814,-0.3586
5815,-0.1793
5816,-0.0797
5817,0.1395
5818,0.2988
5819,0.2590
5820,0.2191
5821,0.2590
5822,0.2789
5823,0.3188
5824,0.4383
5825,0.3586
5826,0.3586
5827,0.3188
5828,0.1992
5829,0.0797
5830,-0.0598
5831,0.0000
5832,0.0996
5833,0.0996
5834,0.2789
5835,0.3785
5836,0.4980
5837,0.3984
5838,0.1395
5839,0.1594
5840,0.1195
5841,0.0000
5842,-0.1195
5843,-0.2789
5844,-0.4383
5845,-0.3188
5846,-0.0199
5847,0.3586
5848,0.4383
5849,0.5379
5850,0.4781
5851,0.2191
5852,0.0996
5853,-0.2988
5854,-0.8566
5855,-0.8168
5856,-0.6773
5857,-0.4582
5858,-0.2391
5859,-0.0199
5860,0.1195
5861,0.1992
5862,0.1992
5863,0.2191
5864,0.2590
5865,0.3586
5866,0.4383
5867,0.3984
5868,0.3387
5869,0.1992
5870,-0.0199
5871,-0.2590
5872,-0.5777
5873,-0.8766
5874,-0.6574
5875,-0.2590
5876,-0.0797
5877,0.0598
5878,0.1594
5879,0.2590
5880,0.3387
5881,0.4383
5882,0.3188
5883,0.1793
5884,0.0199
5885,-0.0797
5886,0.0398
5887,-0.2391
5888,-0.2988
5889,-0.2789
5890,-0.1793
5891,0.0199
5892,0.0797
5893,0.1395
5894,0.1395
5895,0.2789
5896,0.3785
5897,0.4781
5898,0.4582
5899,0.3387
5900,0.2391
5901,0.0598
5902,-0.1195
5903,-0.2191
5904,-0.3387
5905,-0.2191
5906,-0.0598
5907,0.0797
5908,0.1594
5909,0.2191
5910,0.0398
5911,0.0598
5912,0.0199
5913,0.0398
5914,0.0398
5915,0.0199
5916,-0.0199
5917,0.0598
5918,-0.0199
5919,-0.1395
5920,0.0996
5921,0.2590
5922,0.2590
5923,0.1793
5924,0.0000
5925,-0.2191
5926,-0.4184
5927,-0.5777
5928,-0.5578
5929,-0.2191
5930,0.0598
5931,0.0996
5932,0.1992
5933,0.1992
5934,0.2191
5935,0.1195
5936,-0.1195
5937,-0.3387
5938,-0.3984
5939,-0.3387
5940,-0.3785
5941,-0.1395
5942,-0.0398
5943,0.1195
5944,0.1793
5945,0.2391
5946,0.2590
5947,0.0598
5948,0.0000
5949,0.1195
5950,0.0199
5951,0.0398
5952,-0.0398
5953,-0.1395
5954,-0.2789
5955,-0.2590
5956,-0.3586
5957,-0.5379
5958,-0.3387
5959,-0.2988
5960,-0.0797
5961,-0.0398
5962,-0.0398
5963,0.0000
5964,0.0598
5965,0.0598
5966,0.1992
5967,0.2391
5968,0.2191
5969,0.1395
5970,0.0996
5971,0.1395
5972,0.1395
5973,-0.0398
5974,-0.1594
5975,-0.1992
5976,-0.1395
5977,-0.0398
5978,0.0598
5979,0.1594
5980,0.0598
5981,-0.0598
5982,-0.1992
5983,-0.1195
5984,-0.2391
5985,-0.3188
5986,-0.3387
5987,-0.1594
5988,0.0398
5989,0.1395
5990,0.1594
5991,0.0797
5992,0.0996
5993,-0.0398
5994,-0.2191
5995,-0.2191
5996,-0.1195
5997,0.0797
5998,0.0199
5999,-0.0996
6000,-0.2391
6001,-0.1992
6002,-0.1395
6003,-0.0398
6004,0.1395
6005,0.0598
6006,0.0000
6007,-0.0797
6008,-0.0996
6009,-0.0398
6010,-0.0199
6011,0.2590
6012,0.5379
6013,0.5578
6014,0.5578
6015,0.3387
6016,-0.0797
6017,-0.4383
6018,-0.7969
6019,-0.6773
6020,-0.4582
6021,-0.3387
6022,-0.1992
6023,-0.2191
6024,-0.0797
6025,-0.1195
6026,-0.1395
6027,-0.0398
6028,0.0199
6029,0.0000
6030,0.0996
6031,0.3586
6032,0.4582
6033,0.5578
6034,0.6176
6035,0.5777
6036,0.4383
6037,0.3188
6038,0.0598
6039,-0.1992
6040,-0.1395
6041,-0.0797
6042,-0.0996
6043,-0.1793
6044,0.1594
6045,0.3188
6046,0.3387
6047,0.2590
6048,-0.0398
6049,-0.4383
6050,-0.5777
6051,-0.4582
6052,-0.3984
6053,-0.2988
6054,-0.2391
6055,-0.1594
6056,-0.0996
6057,0.0199
6058,0.0199
6059,0.0199
6060,0.0797
6061,0.0996
6062,0.1594
6063,0.2191
6064,0.1594
6065,0.1195
6066,0.0398
6067,0.0797
6068,0.0598
6069,0.1395
6070,0.1594
6071,0.1395
6072,0.2191
6073,0.1594
6074,0.1195
6075,0.1195
6076,0.0598
6077,0.0797
6078,0.0797
6079,0.1992
6080,0.1395
6081,0.0000
6082,-0.0598
6083,0.0398
6084,0.0797
6085,-0.1992
6086,-0.2191
6087,-0.2391
6088,-0.1195
6089,0.0000
6090,-0.0398
6091,-0.0398
6092,0.0000
6093,-0.0598
6094,-0.0797
6095,0.0598
6096,0.2191
6097,0.2191
6098,0.1992
6099,0.1395
6100,0.1992
6101,0.2191
6102,-0.0398
6103,-0.2391
6104,-0.4582
6105,-0.3387
6106,-0.0398
6107,0.2191
6108,0.4582
6109,0.4980
6110,0.4383
6111,0.1992
6112,-0.1395
6113,-0.4980
6114,-0.7371
6115,-0.5379
6116,-0.1992
6117,-0.0996
6118,-0.0199
6119,-0.0398
6120,-0.0996
6121,-0.3188
6122,-0.1992
6123,0.0797
6124,0.1395
6125,0.0000
6126,0.0398
6127,0.0000
6128,-0.0996
6129,-0.1793
6130,-0.0797
6131,0.0398
6132,0.0398
6133,-0.0398
6134,-0.0797
6135,-0.0199
6136,0.0996
6137,0.1195
6138,0.0398
6139,0.0598
6140,0.1395
6141,0.1793
6142,0.0797
6143,0.0000
6144,-0.0797
6145,0.0000
6146,0.0398
6147,0.0797
6148,0.1594
6149,0.2191
6150,0.2590
6151,0.1594
6152,0.0598
6153,-0.0199
6154,-0.0797
6155,-0.1395
6156,-0.1395
6157,-0.1594
6158,-0.0996
6159,-0.0398
6160,0.0000
6161,-0.0598
6162,-0.0598
6163,-0.0398
6164,0.0598
6165,0.1594
6166,0.0797
6167,0.0199
6168,-0.1395
6169,-0.1793
6170,-0.1395
6171,-0.1793
6172,-0.0199
6173,0.1594
6174,0.2590
6175,0.2988
6176,0.2191
6177,0.1195
6178,0.0996
6179,-0.0797
6180,-0.1992
6181,-0.1793
6182,0.0199
6183,0.1395
6184,0.0996
6185,0.2590
6186,0.3586
6187,0.2391
6188,0.0797
6189,-0.1594
6190,-0.5977
6191,-0.8367
6192,-0.6176
6193,-0.3586
6194,-0.2191
6195,-0.1793
6196,0.0000
6197,0.1594
6198,0.4184
6199,0.3984
6200,0.5379
6201,0.6973
6202,0.7172
6203,0.5777
6204,0.2590
6205,-0.0996
6206,-0.1992
6207,-0.1793
6208,-0.0797
6209,-0.1195
6210,-0.1395
6211,0.0199
6212,0.0398
6213,-0.2789
6214,-0.2191
6215,-0.0398
6216,0.0797
6217,0.1395
6218,0.1793
6219,0.0398
6220,-0.1195
6221,-0.1195
6222,-0.3188
6223,-0.3785
6224,-0.3387
6225,-0.3785
6226,-0.3586
6227,-0.3188
6228,-0.2590
6229,-0.0996
6230,0.0000
6231,0.0598
6232,0.0598
6233,-0.1395
6234,-0.1594
6235,-0.1992
6236,-0.1594
6237,-0.1992
6238,-0.3387
6239,-0.2988
6240,-0.1195
6241,-0.0398
6242,-0.0199
6243,-0.1195
6244,-0.1992
6245,-0.2191
6246,-0.2191
6247,-0.1793
6248,-0.0797
6249,-0.0398
6250,-0.0598
6251,0.0000
6252,0.1992
6253,0.3188
6254,0.2191
6255,0.1195
6256,0.1992
6257,-0.0797
6258,-0.3387
6259,-0.2590
6260,-0.2391
6261,-0.3387
6262,-0.4184
6263,-0.4383
6264,-0.0797
6265,0.1395
6266,0.2590
6267,0.4781
6268,0.4582
6269,0.4980
6270,0.3785
6271,0.1992
6272,-0.0199
6273,-0.3188
6274,-0.3785
6275,-0.3387
6276,-0.5977
6277,-0.4781
6278,-0.4383
6279,-0.4184
6280,-0.2590
6281,-0.0598
6282,0.1793
6283,0.2789
6284,0.2988
6285,0.2191
6286,0.1992
6287,0.1195
6288,-0.1395
6289,-0.2191
6290,-0.0996
6291,-0.0398
6292,-0.0996
6293,-0.1395
6294,0.0199
6295,0.1395
6296,0.0797
6297,0.0996
6298,0.0996
6299,0.0996
6300,-0.0199
6301,0.0598
6302,-0.0598
6303,-0.1195
6304,-0.1793
6305,-0.1195
6306,-0.1195
6307,-0.1793
6308,-0.1594
6309,-0.0996
6310,0.0398
6311,0.1992
6312,0.2191
6313,0.1992
6314,0.0199
6315,-0.0797
6316,-0.0996
6317,-0.1793
6318,-0.0996
6319,0.1395
6320,0.1195
6321,0.0199
6322,-0.0199
6323,0.0797
6324,0.1594
6325,0.2191
6326,0.1594
6327,0.1992
6328,0.2191
6329,0.1992
6330,0.1395
6331,0.0996
6332,0.1395
6333,0.1594
6334,0.1395
6335,0.2391
6336,0.3387
6337,0.3785
6338,0.2391
6339,0.1992
6340,0.0996
6341,0.0598
6342,-0.1195
6343,-0.2391
6344,-0.1594
6345,-0.0996
6346,0.0598
6347,0.0398
6348,0.0598
6349,0.1992
6350,0.3984
6351,0.3984
6352,0.2191
6353,0.1195
6354,0.0996
6355,-0.0199
6356,-0.1395
6357,-0.1793
6358,-0.3586
6359,-0.3785
6360,-0.2391
6361,-0.2590
6362,-0.2988
6363,-0.2789
6364,-0.2391
6365,-0.2391
6366,-0.1793
6367,-0.1195
6368,0.1195
6369,0.1793
6370,0.1793
6371,0.0199
6372,-0.0598
6373,-0.0199
6374,-0.0996
6375,-0.2191
6376,-0.3984
6377,-0.4980
6378,-0.4383
6379,-0.2789
6380,-0.1195
6381,-0.1195
6382,-0.1395
6383,-0.1195
6384,-0.0199
6385,0.0996
6386,0.1793
6387,0.2391
6388,0.2789
6389,0.2391
6390,0.1793
6391,0.0000
6392,-0.3188
6393,-0.5578
6394,-0.5977
6395,-0.3785
6396,-0.2191
6397,-0.0996
6398,0.0000
6399,0.0598
6400,0.0996
6401,0.1195
6402,0.1793
6403,0.0797
6404,-0.1195
6405,-0.2391
6406,-0.3188
6407,-0.1395
6408,-0.0398
6409,-0.0199
6410,0.0398
6411,0.1793
6412,0.2988
6413,0.3586
6414,0.3188
6415,0.2391
6416,0.1594
6417,0.0000
6418,-0.3785
6419,-0.5180
6420,-0.5977
6421,-0.5977
6422,-0.3188
6423,0.0398
6424,0.1195
6425,0.1395
6426,0.0598
6427,0.0398
6428,-0.0199
6429,-0.1594
6430,-0.1594
6431,-0.2590
6432,-0.2988
6433,-0.2191
6434,-0.0199
6435,0.0199
6436,0.0598
6437,0.0598
6438,0.0398
6439,0.2590
6440,0.2789
6441,0.3586
6442,0.2789
6443,0.1395
6444,0.1594
6445,0.2191
6446,0.0398
6447,-0.2191
6448,-0.3387
6449,-0.2391
6450,-0.0598
6451,0.0398
6452,0.1594
6453,0.1195
6454,0.1195
6455,0.1195
6456,-0.1195
6457,-0.0598
6458,0.1594
6459,0.1195
6460,0.1793
6461,0.2590
6462,0.3586
6463,0.2789
6464,0.0996
6465,-0.0199
6466,0.0000
6467,0.1793
6468,0.3387
6469,0.3387
6470,0.3387
6471,0.3188
6472,0.2391
6473,0.2789
6474,0.2590
6475,0.1594
6476,0.0398
6477,-0.0199
6478,0.0000
6479,0.1793
6480,0.2391
6481,0.2590
6482,0.3586
6483,0.2590
6484,0.1395
6485,0.0598
6486,0.1395
6487,0.1793
6488,0.0797
6489,0.0199
6490,-0.1195
6491,-0.2391
6492,-0.2590
6493,-0.1195
6494,0.0000
6495,0.0797
6496,0.0199
6497,0.0199
6498,0.0199
6499,0.1395
6500,0.1395
6501,0.0996
6502,0.0199
6503,-0.0199
6504,0.0199
6505,-0.1594
6506,-0.3387
6507,-0.3785
6508,-0.4184
6509,-0.2789
6510,-0.1195
6511,-0.0398
6512,0.0797
6513,0.1793
6514,0.2988
6515,0.3586
6516,0.3785
6517,0.1395
6518,-0.1793
6519,-0.3387
6520,-0.2988
6521,-0.1793
6522,0.0598
6523,0.2191
6524,0.3586
6525,0.3984
6526,0.3188
6527,0.0000
6528,-0.3586
6529,-0.6574
6530,-1.1156
6531,-0.9363
6532,-0.8367
6533,-0.5977
6534,-0.1395
6535,0.0398
6536,0.2391
6537,0.1594
6538,0.1992
6539,0.0398
6540,-0.3387
6541,-0.2988
6542,-0.1793
6543,-0.1195
6544,-0.0199
6545,0.0000
6546,-0.0797
6547,-0.0598
6548,-0.0598
6549,-0.2988
6550,-0.2191
6551,-0.0797
6552,0.0398
6553,0.0398
6554,0.0398
6555,0.0199
6556,-0.0398
6557,-0.0797
6558,-0.1992
6559,-0.1793
6560,-0.0996
6561,-0.1195
6562,-0.2590
6563,-0.4980
6564,-0.4383
6565,-0.3785
6566,-0.2988
6567,-0.1992
6568,-0.0598
6569,-0.0996
6570,0.0000
6571,0.0598
6572,0.1594
6573,0.1395
6574,0.0598
6575,-0.0598
6576,-0.1594
6577,-0.1594
6578,-0.0199
6579,0.0797
6580,0.1793
6581,0.1793
6582,0.1594
6583,-0.0199
6584,-0.0996
6585,-0.1992
6586,-0.1992
6587,-0.1793
6588,-0.2391
6589,-0.0797
6590,0.1793
6591,0.2590
6592,0.2789
6593,0.1594
6594,0.0199
6595,0.0199
6596,0.1395
6597,0.4980
6598,0.6375
6599,0.5977
6600,0.5180
6601,0.2391
6602,-0.1793
6603,-0.2391
6604,-0.2590
6605,-0.4383
6606,-0.5977
6607,-0.3586
6608,-0.0797
6609,0.1195
6610,0.2988
6611,0.3188
6612,0.2789
6613,0.2789
6614,0.1992
6615,0.0398
6616,-0.1195
6617,-0.2191
6618,0.0000
6619,0.0996
6620,0.1992
6621,0.1594
6622,0.0996
6623,0.1793
6624,0.0797
6625,0.0996
6626,-0.0398
6627,-0.0398
6628,0.0000
6629,0.0199
6630,-0.0797
6631,0.0199
6632,0.1594
6633,0.1195
6634,0.1793
6635,0.2191
6636,0.1594
6637,0.2391
6638,0.0996
6639,-0.0398
6640,-0.1195
6641,-0.1992
6642,-0.2191
6643,-0.2590
6644,-0.2988
6645,-0.1992
6646,-0.1395
6647,0.0598
6648,0.2391
6649,0.3785
6650,0.3984
6651,0.4582
6652,0.4980
6653,0.3586
6654,0.1195
6655,-0.2391
6656,-0.2590
6657,-0.4582
6658,-0.4383
6659,-0.4383
6660,-0.2391
6661,-0.1395
6662,0.0000
6663,0.0797
6664,-0.0398
6665,-0.0797
6666,-0.1195
6667,-0.1195
6668,-0.2590
6669,-0.1992
6670,0.0398
6671,0.1992
6672,0.2191
6673,0.3188
6674,0.4383
6675,0.4383
6676,0.3984
6677,0.4184
6678,0.2191
6679,-0.3984
6680,-0.8168
6681,-0.8168
6682,-0.6973
6683,-0.7172
6684,-0.4383
6685,-0.2988
6686,-0.1395
6687,-0.0797
6688,-0.1195
6689,-0.0398
6690,0.1992
6691,0.2789
6692,0.1395
6693,0.0598
6694,0.0000
6695,-0.0598
6696,-0.1195
6697,-0.0797
6698,0.0199
6699,0.1195
6700,0.1594
6701,0.1395
6702,0.0996
6703,0.1395
6704,0.2590
6705,0.3188
6706,0.2789
6707,0.2191
6708,0.1195
6709,0.1992
6710,0.1594
6711,0.0398
6712,-0.0598
6713,-0.0996
6714,-0.2988
6715,-0.4383
6716,-0.3586
6717,-0.2789
6718,0.0199
6719,0.1195
6720,0.1793
6721,0.1594
6722,0.1195
6723,-0.0398
6724,0.0000
6725,0.0398
6726,0.0199
6727,0.0398
6728,-0.0797
6729,-0.0199
6730,-0.1395
6731,-0.0398
6732,0.0996
6733,0.1594
6734,0.0797
6735,0.0199
6736,-0.0996
6737,-0.3188
6738,-0.4184
6739,-0.1594
6740,0.0199
6741,-0.0398
6742,-0.0199
6743,0.0000
6744,0.0398
6745,0.0199
6746,-0.2391
6747,-0.1195
6748,-0.0398
6749,-0.0398
6750,-0.0199
6751,0.0199
6752,-0.0598
6753,-0.0598
6754,-0.0598
6755,0.0398
6756,0.2391
6757,0.3188
6758,0.2789
6759,0.3586
6760,0.4582
6761,0.3586
6762,0.3387
6763,0.2391
6764,-0.1793
6765,-0.4184
6766,-0.3586
6767,-0.1195
6768,0.0398
6769,0.1195
6770,0.0598
6771,-0.0398
6772,-0.1195
6773,-0.2988
6774,-0.2191
6775,-0.1992
6776,-0.0598
6777,0.1195
6778,0.1395
6779,0.2191
6780,0.3387
6781,0.2988
6782,0.0797
6783,-0.0797
6784,-0.0598
6785,-0.0996
6786,-0.0598
6787,-0.0398
6788,0.0598
6789,0.0000
6790,-0.1395
6791,-0.1395
6792,-0.0199
6793,-0.0398
6794,0.1594
6795,0.1992
6796,0.0000
6797,-0.1594
6798,-0.0797
6799,0.0996
6800,0.0598
6801,-0.0199
6802,-0.0398
6803,-0.0996
6804,-0.2789
6805,-0.1992
6806,-0.2590
6807,-0.1195
6808,-0.0598
6809,-0.0398
6810,0.0199
6811,-0.0199
6812,0.0598
6813,0.1195
6814,0.0996
6815,0.1793
6816,0.2590
6817,0.2391
6818,0.0598
6819,-0.0199
6820,-0.0598
6821,0.0000
6822,0.0398
6823,-0.0598
6824,-0.1395
6825,-0.2191
6826,-0.1395
6827,0.0000
6828,-0.0598
6829,-0.0398
6830,0.0000
6831,0.0000
6832,0.0398
6833,0.1594
6834,0.1594
6835,-0.0199
6836,-0.0398
6837,0.0199
6838,0.0000
6839,0.1992
6840,0.3188
6841,0.2590
6842,0.2191
6843,0.0199
6844,-0.1793
6845,-0.3785
6846,-0.3984
6847,-0.3387
6848,-0.2988
6849,-0.4184
6850,-0.4383
6851,-0.1992
6852,-0.0797
6853,0.0199
6854,0.0797
6855,0.1992
6856,0.1594
6857,0.0199
6858,-0.0398
6859,0.0000
6860,0.1395
6861,0.2988
6862,0.2191
6863,0.0598
6864,0.0797
6865,0.0598
6866,0.0797
6867,0.0598
6868,0.0199
6869,-0.0199
6870,-0.0398
6871,-0.2391
6872,-0.3785
6873,-0.4383
6874,-0.2988
6875,-0.0398
6876,0.0797
6877,0.0199
6878,0.0199
6879,-0.0199
6880,0.0000
6881,-0.0996
6882,0.0000
6883,-0.0797
6884,-0.1195
6885,-0.0398
6886,-0.0598
6887,-0.0996
6888,-0.0398
6889,0.0199
6890,0.0000
6891,0.1195
6892,0.2590
6893,0.3984
6894,0.3188
6895,0.3387
6896,-0.0199
6897,-0.4184
6898,-0.6375
6899,-0.7172
6900,-0.4980
6901,-0.0199
6902,0.1594
6903,0.2391
6904,0.2391
6905,0.2391
6906,0.2191
6907,0.2191
6908,0.2590
6909,0.0199
6910,-0.0797
6911,0.0000
6912,0.1395
6913,0.0996
6914,0.0996
6915,-0.1195
6916,-0.0797
6917,-0.0199
6918,-0.0199
6919,0.0000
6920,0.0199
6921,0.0598
6922,0.1594
6923,0.3387
6924,0.3188
6925,0.1594
6926,-0.0797
6927,-0.2789
6928,-0.5379
6929,-0.6773
6930,-0.5578
6931,-0.4383
6932,-0.2391
6933,-0.0598
6934,0.0797
6935,0.1992
6936,0.4383
6937,0.5180
6938,0.5379
6939,0.4383
6940,0.3387
6941,0.2988
6942,0.0398
6943,-0.2590
6944,-0.5977
6945,-0.6574
6946,-0.3785
6947,-0.0598
6948,0.0199
6949,0.1793
6950,0.2590
6951,0.3785
6952,0.3188
6953,0.0797
6954,-0.1594
6955,-0.4383
6956,-0.4383
6957,-0.2789
6958,-0.2191
6959,-0.0996
6960,0.0398
6961,0.1594
6962,0.2988
6963,0.2789
6964,0.3188
6965,0.2590
6966,0.1594
6967,0.1395
6968,-0.0199
6969,-0.1195
6970,-0.1395
6971,-0.1594
6972,-0.1594
6973,-0.2191
6974,-0.1395
6975,0.0398
6976,0.1992
6977,0.2988
6978,0.3586
6979,0.3785
6980,0.3785
6981,0.2191
6982,0.2191
6983,0.0996
6984,-0.1195
6985,-0.2191
6986,-0.3188
6987,-0.4184
6988,-0.4781
6989,-0.4781
6990,-0.1594
6991,0.0000
6992,0.1195
6993,0.1395
6994,0.1793
6995,0.2391
6996,0.1395
6997,0.1594
6998,0.1992
6999,0.1793
7000,0.0398
7001,0.0199
7002,-0.0199
7003,-0.1195
7004,-0.2191
7005,-0.3188
7006,-0.4781
7007,-0.2789
7008,-0.1793
7009,0.0199
7010,0.1793
7011,0.2988
7012,0.3785
7013,0.3984
7014,0.3984
7015,0.1992
7016,0.0000
7017,-0.0199
7018,-0.0398
7019,-0.1992
7020,-0.3387
7021,-0.4184
7022,-0.4781
7023,-0.5180
7024,-0.4980
7025,-0.2391
7026,-0.0199
7027,0.1793
7028,0.2590
7029,0.3188
7030,0.3188
7031,0.1992
7032,0.1195
7033,0.0398
7034,-0.0398
7035,-0.0598
7036,-0.0398
7037,-0.0797
7038,-0.2191
7039,0.0199
7040,0.0797
7041,0.0598
7042,0.2391
7043,0.3984
7044,0.4184
7045,0.3188
7046,0.0398
7047,-0.2191
7048,-0.3984
7049,-0.4383
7050,-0.4980
7051,-0.5578
7052,-0.4184
7053,-0.2391
7054,-0.1793
7055,-0.0199
7056,0.1793
7057,0.3785
7058,0.3387
7059,0.4184
7060,0.3387
7061,0.2391
7062,-0.0199
7063,-0.2590
7064,-0.4383
7065,-0.4383
7066,-0.3586
7067,-0.3387
7068,-0.1793
7069,-0.0996
7070,0.0398
7071,0.1793
7072,0.2391
7073,0.2391
7074,0.3387
7075,0.2789
7076,0.2988
7077,0.3387
7078,0.1594
7079,-0.0797
7080,-0.2391
7081,-0.2789
7082,-0.3984
7083,-0.2391
7084,-0.1195
7085,-0.0598
7086,-0.0797
7087,-0.0797
7088,-0.1793
7089,-0.0598
7090,0.0996
7091,0.2590
7092,0.3984
7093,0.2590
7094,0.1793
7095,0.2191
7096,0.1395
7097,0.0199
7098,-0.1395
7099,-0.3387
7100,-0.1992
7101,-0.0398
7102,0.0996
7103,0.1395
7104,0.0398
7105,0.0398
7106,0.0398
7107,0.1395
7108,0.2391
7109,0.0199
7110,-0.1395
7111,-0.2191
7112,-0.0996
7113,-0.3785
7114,-0.4781
7115,-0.3387
7116,-0.0797
7117,-0.0797
7118,-0.1793
7119,-0.0199
7120,0.0598
7121,0.0797
7122,0.1195
7123,0.0996
7124,0.2191
7125,0.1395
7126,-0.0199
7127,-0.2789
7128,-0.3984
7129,-0.3586
7130,-0.1992
7131,-0.0996
7132,0.0199
7133,0.2789
7134,0.5977
7135,0.5578
7136,0.3785
7137,0.0199
7138,-0.4184
7139,-0.5578
7140,-0.4781
7141,-0.3387
7142,-0.0797
7143,-0.0996
7144,-0.0797
7145,-0.0797
7146,-0.0398
7147,0.0398
7148,-0.0199
7149,0.0000
7150,0.1195
7151,0.1793
7152,0.1594
7153,0.2590
7154,0.0797
7155,0.1395
7156,0.2391
7157,0.1793
7158,0.1395
7159,0.1594
7160,-0.0996
7161,-0.0797
7162,0.0996
7163,0.0797
7164,0.0000
7165,0.1793
7166,0.2789
7167,0.2191
7168,0.1793
7169,0.1594
7170,0.2191
7171,0.2590
7172,0.1793
7173,0.0398
7174,-0.0996
7175,-0.3586
7176,-0.4383
7177,-0.2789
7178,-0.1793
7179,-0.0996
7180,-0.0398
7181,0.1395
7182,0.2988
7183,0.1793
7184,0.1594
7185,0.1195
7186,0.0996
7187,0.2590
7188,0.2191
7189,0.1793
7190,0.1793
7191,0.1594
7192,0.1992
7193,0.0996
7194,0.2789
7195,0.4184
7196,0.3785
7197,0.4184
7198,0.3188
7199,0.1594
7200,0.0000
7201,-0.1395
7202,-0.1594
7203,-0.3785
7204,-0.3387
7205,-0.1395
7206,-0.1195
7207,0.1793
7208,0.3586
7209,0.3984
7210,0.3586
7211,0.2988
7212,0.2191
7213,0.1594
7214,0.0598
7215,-0.0996
7216,-0.0199
7217,0.0199
7218,0.0199
7219,0.0000
7220,-0.0797
7221,-0.0797
7222,0.0996
7223,0.0797
7224,-0.0398
7225,-0.0996
7226,-0.0398
7227,0.2590
7228,0.4980
7229,0.4980
7230,0.4582
7231,0.2988
7232,0.0000
7233,-0.4184
7234,-0.7172
7235,-0.6773
7236,-0.4980
7237,-0.3984
7238,-0.2391
7239,0.0000
7240,0.0199
7241,-0.0398
7242,-0.3984
7243,-0.4184
7244,-0.4184
7245,-0.3188
7246,-0.3984
7247,-0.2988
7248,-0.1195
7249,-0.0199
7250,0.0996
7251,0.2789
7252,0.3586
7253,0.3387
7254,0.2789
7255,0.0996
7256,-0.0398
7257,-0.2191
7258,-0.3188
7259,-0.2590
7260,-0.2191
7261,-0.0996
7262,0.0598
7263,-0.0598
7264,-0.0199
7265,-0.0398
7266,-0.0797
7267,-0.0598
7268,-0.0398
7269,0.0398
7270,0.0199
7271,0.0000
7272,0.0199
7273,-0.0199
7274,0.0398
7275,0.0996
7276,0.0797
7277,0.0598
7278,0.0797
7279,0.0000
7280,0.0996
7281,0.1793
7282,0.2590
7283,0.1594
7284,-0.0797
7285,-0.0398
7286,-0.0199
7287,0.0398
7288,0.0996
7289,0.1395
7290,0.1793
7291,0.1395
7292,0.0398
7293,-0.1195
7294,-0.3188
7295,-0.3188
7296,-0.2590
7297,-0.3387
7298,-0.2988
7299,-0.1992
7300,-0.3188
7301,-0.4184
7302,-0.2988
7303,-0.0598
7304,0.2391
7305,0.3387
7306,0.2988
7307,0.4582
7308,0.3984
7309,0.3387
7310,0.3586
7311,0.1195
7312,-0.0398
7313,-0.2789
7314,-0.3984
7315,-0.3984
7316,-0.3586
7317,-0.2191
7318,-0.2391
7319,-0.3586
7320,-0.2988
7321,-0.2590
7322,-0.2391
7323,-0.2590
7324,-0.2590
7325,-0.3984
7326,-0.0996
7327,0.0398
7328,0.0000
7329,0.0199
7330,-0.0398
7331,-0.0598
7332,-0.2191
7333,-0.3188
7334,-0.2391
7335,-0.0797
7336,0.0797
7337,0.1395
7338,0.2191
7339,0.1793
7340,0.0398
7341,-0.1395
7342,-0.4383
7343,-0.3785
7344,-0.2590
7345,-0.1195
7346,-0.0199
7347,-0.0199
7348,-0.1992
7349,-0.2988
7350,-0.2590
7351,-0.3785
7352,-0.2988
7353,-0.2391
7354,-0.1594
7355,0.0398
7356,0.1594
7357,0.2191
7358,0.1992
7359,0.1992
7360,0.2391
7361,0.1992
7362,0.1793
7363,0.1992
7364,0.0996
7365,-0.0996
7366,-0.0797
7367,0.0000
7368,0.0398
7369,0.0797
7370,0.0199
7371,-0.0598
7372,-0.2789
7373,-0.2988
7374,-0.0199
7375,0.0398
7376,0.0199
7377,-0.0598
7378,0.0398
7379,0.1594
7380,0.2988
7381,0.3586
7382,0.3785
7383,0.3586
7384,0.3785
7385,0.2988
7386,0.1992
7387,0.1594
7388,0.0000
7389,-0.0199
7390,0.0199
7391,0.1793
7392,0.1992
7393,0.1195
7394,0.1395
7395,0.0996
7396,-0.2391
7397,-0.3785
7398,-0.3785
7399,-0.0797
7400,0.0199
7401,0.0598
7402,0.0398
7403,-0.1793
7404,-0.2988
7405,-0.2789
7406,-0.2789
7407,-0.0996
7408,0.1992
7409,0.2789
7410,0.3387
7411,0.4383
7412,0.4781
7413,0.2590
7414,-0.1793
7415,-0.0398
7416,0.1992
7417,0.4184
7418,0.4383
7419,0.3586
7420,0.2988
7421,-0.0598
7422,-0.3387
7423,-0.4980
7424,-0.6973
7425,-0.7371
7426,-0.6773
7427,-0.3188
7428,-0.0598
7429,0.0199
7430,-0.0398
7431,-0.1594
7432,-0.2191
7433,-0.3984
7434,-0.2988
7435,-0.2191
7436,0.0199
7437,0.0996
7438,0.0996
7439,0.1395
7440,0.1395
7441,0.1195
7442,0.1395
7443,-0.0199
7444,-0.1793
7445,-0.2590
7446,-0.2191
7447,-0.1594
7448,-0.0797
7449,-0.0797
7450,-0.1395
7451,-0.2789
7452,-0.1195
7453,-0.0398
7454,0.0000
7455,0.0000
7456,0.0598
7457,0.0797
7458,0.1195
7459,0.1992
7460,0.2789
7461,0.2590
7462,0.2590
7463,0.2988
7464,0.1992
7465,0.0398
7466,-0.0797
7467,-0.1594
7468,-0.2590
7469,-0.0996
7470,-0.0598
7471,-0.0398
7472,-0.1594
7473,-0.1793
7474,0.0000
7475,0.2391
7476,0.3188
7477,0.3387
7478,0.3586
7479,0.3188
7480,0.2590
7481,-0.0598
7482,-0.5180
7483,-0.5977
7484,-0.4582
7485,-0.1992
7486,-0.0398
7487,0.1395
7488,-0.0398
7489,-0.3387
7490,-0.3984
7491,-0.3586
7492,-0.2391
7493,-0.1793
7494,0.1395
7495,0.3387
7496,0.4582
7497,0.5379
7498,0.4582
7499,0.3785
7500,0.1594
7501,-0.0996
7502,-0.1395
7503,-0.1395
7504,-0.2590
7505,-0.1793
7506,-0.0797
7507,0.0000
7508,0.1395
7509,0.1195
7510,0.1992
7511,0.0996
7512,-0.0598
7513,-0.2988
7514,-0.3387
7515,-0.3586
7516,-0.3785
7517,-0.3785
7518,-0.2191
7519,-0.1195
7520,-0.0199
7521,-0.0199
7522,0.0000
7523,0.1793
7524,0.3387
7525,0.3387
7526,0.2988
7527,0.2789
7528,0.1992
7529,-0.0199
7530,-0.2590
7531,-0.5379
7532,-0.3387
7533,-0.2391
7534,-0.0797
7535,0.0398
7536,0.0398
7537,0.0598
7538,0.0398
7539,-0.0398
7540,0.0598
7541,0.0000
7542,0.0598
7543,0.1195
7544,0.2191
7545,0.2391
7546,0.2789
7547,0.2191
7548,0.0797
7549,-0.0797
7550,-0.2391
7551,-0.2391
7552,-0.2391
7553,-0.2789
7554,-0.0996
7555,0.0000
7556,-0.0797
7557,-0.2789
7558,-0.5379
7559,-0.5180
7560,-0.3188
7561,-0.0598
7562,0.0996
7563,0.0797
7564,0.2191
7565,0.2789
7566,0.3188
7567,0.3188
7568,0.1793
7569,0.0598
7570,0.1594
7571,0.0598
7572,-0.0598
7573,-0.0398
7574,0.0598
7575,0.1594
7576,0.1395
7577,0.0797
7578,0.0000
7579,-0.0199
7580,-0.1992
7581,-0.1992
7582,-0.1793
7583,-0.1793
7584,-0.1395
7585,0.0000
7586,0.0199
7587,-0.0199
7588,0.0000
7589,-0.0598
7590,0.0598
7591,0.0398
7592,-0.1395
7593,-0.1992
7594,-0.1195
7595,-0.0996
7596,0.0000
7597,0.1594
7598,0.2590
7599,0.3188
7600,0.4184
7601,0.4184
7602,0.3387
7603,0.2590
7604,0.1395
7605,-0.0398
7606,-0.1793
7607,-0.2391
7608,-0.3387
7609,-0.2191
7610,0.0000
7611,0.1594
7612,0.1395
7613,0.0598
7614,-0.0398
7615,-0.0996
7616,-0.0797
7617,-0.2191
7618,-0.3188
7619,-0.2191
7620,-0.1992
7621,-0.0199
7622,0.1594
7623,0.2590
7624,0.2789
7625,0.2590
7626,0.0996
7627,-0.0996
7628,-0.1195
7629,-0.1594
7630,-0.2191
7631,-0.1992
7632,-0.1195
7633,-0.1395
7634,0.0000
7635,0.0199
7636,0.0797
7637,0.0199
7638,-0.2391
7639,-0.1992
7640,-0.2590
7641,-0.2590
7642,-0.2191
7643,-0.1195
7644,-0.0996
7645,-0.0398
7646,-0.0996
7647,0.0199
7648,-0.0398
7649,-0.0398
7650,0.0199
7651,0.0199
7652,-0.0797
7653,-0.1195
7654,-0.0996
7655,0.0199
7656,0.1395
7657,0.3188
7658,0.3586
7659,0.3785
7660,0.2391
7661,0.1195
7662,-0.0797
7663,-0.3188
7664,-0.3188
7665,-0.3387
7666,-0.2988
7667,-0.4383
7668,-0.3984
7669,-0.4184
7670,-0.2988
7671,-0.1594
7672,0.0000
7673,0.1195
7674,0.2191
7675,0.2391
7676,0.2391
7677,0.0996
7678,0.0000
7679,-0.0996
7680,-0.0797
7681,-0.0398
7682,0.1195
7683,0.2191
7684,0.1992
7685,0.1594
7686,0.0000
7687,-0.3188
7688,-0.4184
7689,-0.5180
7690,-0.4383
7691,-0.3785
7692,-0.3188
7693,-0.2391
7694,-0.1395
7695,-0.0398
7696,-0.1992
7697,-0.1992
7698,-0.0996
7699,0.0199
7700,0.0598
7701,0.0199
7702,0.0398
7703,0.0996
7704,0.1395
7705,0.2191
7706,0.2590
7707,0.2789
7708,0.3387
7709,0.2988
7710,0.2590
7711,-0.0398
7712,-0.1395
7713,-0.1594
7714,-0.3188
7715,-0.3387
7716,-0.3387
7717,0.0000
7718,0.0598
7719,0.1395
7720,0.1793
7721,0.0996
7722,0.3188
7723,0.3387
7724,0.3188
7725,0.3387
7726,0.1195
7727,-0.0199
7728,-0.0199
7729,0.0996
7730,0.1992
7731,0.1992
7732,0.0398
7733,-0.1395
7734,-0.2988
7735,-0.2191
7736,-0.1793
7737,-0.1195
7738,-0.0996
7739,-0.0598
7740,0.0996
7741,0.1195
7742,-0.0199
7743,-0.0797
7744,0.0797
7745,0.1395
7746,0.0598
7747,0.0598
7748,0.0398
7749,0.0996
7750,0.1195
7751,0.1594
7752,0.1395
7753,0.1195
7754,0.1395
7755,0.0000
7756,-0.2590
7757,-0.3785
7758,-0.2590
7759,-0.2391
7760,-0.3785
7761,-0.3188
7762,-0.2789
7763,-0.1992
7764,-0.0797
7765,0.0797
7766,0.2988
7767,0.4781
7768,0.3586
7769,0.1992
7770,-0.0199
7771,-0.2789
7772,-0.4383
7773,-0.3984
7774,-0.3984
7775,-0.2789
7776,-0.1195
7777,0.0996
7778,0.2789
7779,0.3387
7780,0.3188
7781,0.3188
7782,0.4184
7783,0.4582
7784,0.4184
7785,0.3387
7786,0.2789
7787,0.1195
7788,0.0996
7789,-0.0398
7790,0.0398
7791,-0.1594
7792,-0.3586
7793,-0.4582
7794,-0.2988
7795,0.0797
7796,0.2988
7797,0.3387
7798,0.1992
7799,0.0199
7800,-0.0398
7801,-0.2391
7802,-0.3984
7803,-0.4184
7804,-0.3586
7805,-0.1992
7806,0.0199
7807,0.1395
7808,0.0797
7809,0.0996
7810,0.0398
7811,0.0199
7812,-0.0797
7813,-0.2191
7814,-0.0398
7815,0.0398
7816,0.0000
7817,0.0598
7818,0.0398
7819,0.0598
7820,0.0996
7821,-0.0398
7822,-0.0996
7823,-0.3188
7824,-0.3387
7825,-0.1594
7826,-0.0398
7827,-0.0598
7828,-0.0199
7829,-0.0398
7830,-0.0398
7831,-0.2191
7832,-0.1195
7833,-0.0398
7834,-0.0996
7835,-0.1594
7836,-0.1594
7837,-0.0996
7838,-0.0996
7839,-0.1195
7840,-0.1594
7841,-0.3188
7842,-0.1793
7843,-0.1594
7844,-0.1395
7845,0.0199
7846,0.0797
7847,0.1992
7848,0.2590
7849,0.2789
7850,0.3984
7851,0.3984
7852,0.3984
7853,0.2191
7854,0.1195
7855,0.0000
7856,-0.1992
7857,-0.3785
7858,-0.5977
7859,-0.6176
7860,-0.3785
7861,-0.1195
7862,0.0598
7863,0.1992
7864,0.1992
7865,0.2391
7866,0.2789
7867,0.3188
7868,0.3387
7869,0.3188
7870,0.1992
7871,-0.0398
7872,-0.1195
7873,-0.1395
7874,-0.0398
7875,0.0000
7876,0.0996
7877,0.2590
7878,0.3785
7879,0.4184
7880,0.3984
7881,0.1992
7882,0.0398
7883,-0.0598
7884,-0.1195
7885,-0.0797
7886,0.0000
7887,0.0000
7888,-0.0398
7889,0.0000
7890,0.1395
7891,0.0398
7892,0.0199
7893,-0.0199
7894,-0.2391
7895,-0.2988
7896,-0.0996
7897,0.0199
7898,0.1195
7899,0.1395
7900,0.2391
7901,0.3984
7902,0.4781
7903,0.4184
7904,0.3984
7905,0.4582
7906,0.4184
7907,0.1992
7908,-0.2988
7909,-0.6973
7910,-0.6375
7911,-0.7172
7912,-0.7770
7913,-0.6375
7914,-0.4582
7915,-0.1992
7916,-0.0398
7917,0.0996
7918,0.0797
7919,0.2191
7920,0.2988
7921,0.2590
7922,0.1395
7923,-0.0598
7924,-0.1195
7925,-0.3984
7926,-0.3586
7927,-0.2391
7928,-0.0996
7929,0.0398
7930,0.0797
7931,0.0797
7932,0.1395
7933,0.0996
7934,0.0996
7935,0.1594
7936,0.0797
7937,0.0996
7938,0.0996
7939,0.0996
7940,0.1594
7941,0.1992
7942,0.2191
7943,0.0598
7944,-0.0996
7945,-0.2191
7946,-0.1992
7947,-0.0996
7948,-0.0797
7949,0.0797
7950,0.1992
7951,0.0996
7952,-0.0398
7953,-0.0797
7954,-0.0398
7955,-0.1992
7956,-0.2391
7957,-0.1594
7958,0.0398
7959,0.0996
7960,0.1992
7961,0.1195
7962,0.0398
7963,-0.0598
7964,0.0000
7965,-0.0598
7966,-0.0797
7967,-0.0996
7968,-0.2391
7969,-0.3586
7970,-0.2191
7971,-0.0199
7972,0.0000
7973,0.0000
7974,0.0797
7975,0.0398
7976,-0.1195
7977,-0.0199
7978,-0.0398
7979,-0.0199
7980,0.0000
7981,0.1195
7982,0.1594
7983,0.0996
7984,-0.0797
7985,-0.1594
7986,-0.1395
7987,-0.0797
7988,-0.0398
7989,0.1195
7990,0.1992
7991,0.2988
7992,0.3785
7993,0.2789
7994,0.1793
7995,0.0398
7996,-0.1594
7997,-0.1594
7998,-0.2391
7999,-0.4383
8000,-0.3984
8001,-0.1594
8002,0.0000
8003,0.1395
8004,0.2789
8005,0.2789
8006,0.1992
8007,0.1195
8008,0.2191
8009,0.0797
8010,0.0797
8011,-0.0199
8012,-0.0996
8013,-0.1195
8014,-0.0996
8015,-0.1793
8016,-0.0797
8017,-0.0199
8018,-0.0598
8019,-0.0199
8020,-0.1395
8021,-0.0398
8022,0.0797
8023,0.0398
8024,0.0398
8025,-0.1594
8026,-0.0797
8027,-0.0996
8028,-0.0996
8029,-0.1395
8030,-0.1594
8031,-0.0398
8032,-0.0199
8033,-0.1195
8034,-0.0398
8035,0.0000
8036,0.0199
8037,0.0797
8038,0.1395
8039,0.2191
8040,0.2191
8041,0.2391
8042,0.2191
8043,0.1793
8044,0.1793
8045,0.0797
8046,-0.0199
8047,-0.0598
8048,-0.0797
8049,-0.0598
8050,-0.0598
8051,-0.0398
8052,-0.1195
8053,0.0598
8054,0.2391
8055,0.0996
8056,-0.1195
8057,-0.2191
8058,-0.1992
8059,-0.2391
8060,-0.2191
8061,-0.2191
8062,-0.1195
8063,-0.0797
8064,-0.1195
8065,-0.1395
8066,-0.0398
8067,0.1195
8068,0.2191
8069,0.2191
8070,0.1395
8071,0.0000
8072,-0.0398
8073,-0.0598
8074,-0.1395
8075,-0.1793
8076,-0.0797
8077,-0.0398
8078,-0.3387
8079,-0.3387
8080,-0.1594
8081,-0.0598
8082,0.0598
8083,0.1594
8084,0.1793
8085,0.2191
8086,0.0598
8087,-0.0996
8088,-0.1395
8089,0.0199
8090,0.0996
8091,0.0996
8092,0.1594
8093,0.0199
8094,-0.2391
8095,-0.3188
8096,-0.4781
8097,-0.4582
8098,-0.2789
8099,-0.1992
8100,-0.1395
8101,0.0000
8102,0.0996
8103,0.1195
8104,0.1793
8105,0.1395
8106,0.0398
8107,0.0398
8108,-0.0199
8109,-0.0398
8110,0.0199
8111,0.0598
8112,-0.0398
8113,-0.0598
8114,0.0598
8115,0.1594
8116,0.1992
8117,0.0797
8118,-0.0398
8119,-0.0797
8120,-0.1594
8121,-0.0598
8122,0.0000
8123,0.0797
8124,0.1395
8125,0.1992
8126,0.3984
8127,0.5379
8128,0.4383
8129,0.2988
8130,0.1992
8131,-0.0797
8132,-0.0398
8133,-0.0598
8134,-0.2191
8135,-0.4582
8136,-0.4980
8137,-0.5379
8138,-0.3188
8139,-0.1594
8140,0.0996
8141,0.2191
8142,0.3387
8143,0.4980
8144,0.4582
8145,0.2191
8146,0.0199
8147,-0.3387
8148,-0.2789
8149,-0.2191
8150,-0.1395
8151,0.0000
8152,0.0000
8153,-0.0199
8154,0.0000
8155,0.0398
8156,0.0996
8157,0.1195
8158,0.1793
8159,0.0398
8160,-0.0199
8161,-0.0199
8162,0.0398
8163,0.0199
8164,0.0598
8165,0.1594
8166,0.1594
8167,0.2590
8168,0.0996
8169,0.0598
8170,-0.0797
8171,-0.4582
8172,-0.2789
8173,0.0398
8174,0.0996
8175,0.0000
8176,0.0398
8177,0.0398
8178,0.0797
8179,0.0598
8180,0.1395
8181,0.1594
8182,0.2191
8183,0.2789
8184,0.1992
8185,0.2191
8186,0.2191
8187,0.1594
8188,-0.0398
8189,-0.0996
8190,-0.1992
8191,-0.1594
8192,-0.0398
8193,0.0398
8194,0.1395
8195,0.0598
8196,0.1395
8197,0.1594
8198,0.1195
8199,0.0199
8200,-0.0199
8201,-0.0199
8202,-0.0598
8203,-0.0797
8204,-0.0797
8205,0.0797
8206,0.0996
8207,0.1395
8208,-0.0199
8209,-0.0797
8210,0.0398
8211,0.1395
8212,0.2590
8213,0.1793
8214,0.1395
8215,0.1594
8216,0.1195
8217,0.0398
8218,0.0199
8219,-0.0598
8220,-0.0797
8221,-0.2988
8222,-0.2789
8223,-0.1195
8224,0.0398
8225,0.0000
8226,0.0199
8227,0.1195
8228,0.0996
8229,0.1195
8230,0.1793
8231,0.3586
8232,0.3785
8233,0.1992
8234,0.2191
8235,-0.0598
8236,-0.1195
8237,-0.0199
8238,-0.1395
8239,-0.1395
8240,-0.1793
8241,-0.2988
8242,-0.2988
8243,-0.1793
8244,-0.1195
8245,-0.1793
8246,-0.1992
8247,-0.0199
8248,0.0797
8249,0.2789
8250,0.2391
8251,0.1594
8252,-0.0598
8253,-0.1195
8254,-0.1594
8255,-0.2988
8256,-0.0598
8257,0.0598
8258,0.1195
8259,0.1992
8260,0.1395
8261,-0.1395
8262,-0.2391
8263,-0.1395
8264,0.0598
8265,-0.0199
8266,0.0199
8267,0.1195
8268,0.0996
8269,0.1395
8270,0.0996
8271,0.1395
8272,0.1395
8273,0.1195
8274,0.0398
8275,0.0398
8276,0.0598
8277,-0.0398
8278,-0.2191
8279,-0.2191
8280,-0.2789
8281,-0.2789
8282,-0.1992
8283,-0.0996
8284,0.0996
8285,0.1195
8286,0.1395
8287,0.0199
8288,-0.0996
8289,-0.0797
8290,0.0000
8291,0.1395
8292,0.1793
8293,0.0199
8294,0.0598
8295,-0.0398
8296,-0.0797
8297,-0.1992
8298,-0.2789
8299,-0.1395
8300,-0.0199
8301,0.0797
8302,0.1395
8303,0.2391
8304,0.3586
8305,0.1992
8306,0.0598
8307,-0.0797
8308,-0.0199
8309,0.0398
8310,0.0598
8311,0.0598
8312,0.1992
8313,0.1594
8314,0.1793
8315,0.0598
8316,0.0996
8317,0.1992
8318,0.1195
8319,-0.0996
8320,-0.1594
8321,-0.2391
8322,-0.2391
8323,-0.2590
8324,-0.1395
8325,-0.0996
8326,0.0199
8327,0.2191
8328,0.1793
8329,0.1395
8330,0.0199
8331,0.0199
8332,0.1793
8333,0.1594
8334,-0.0398
8335,-0.0797
8336,-0.2391
8337,-0.3188
8338,-0.3984
8339,-0.2988
8340,-0.2988
8341,0.0797
8342,0.2590
8343,0.3188
8344,0.3586
8345,0.3586
8346,0.2789
8347,0.0797
8348,-0.2988
8349,-0.5379
8350,-0.4383
8351,-0.2590
8352,-0.2191
8353,-0.2789
8354,-0.0598
8355,0.1195
8356,0.2191
8357,0.3188
8358,0.4980
8359,0.5379
8360,0.4184
8361,0.2391
8362,0.1395
8363,0.1992
8364,0.0000
8365,-0.4184
8366,-0.6375
8367,-0.6773
8368,-0.5180
8369,-0.3387
8370,-0.2191
8371,-0.1195
8372,-0.1195
8373,0.0199
8374,0.1793
8375,0.2191
8376,0.2391
8377,0.1594
8378,0.0199
8379,-0.0398
8380,-0.1793
8381,-0.3188
8382,-0.5180
8383,-0.3785
8384,-0.1594
8385,-0.0598
8386,0.0199
8387,0.1195
8388,0.0996
8389,0.0996
8390,0.0398
8391,0.0199
8392,0.0598
8393,0.0797
8394,0.0598
8395,0.0797
8396,0.0598
8397,0.0797
8398,-0.0398
8399,-0.0996
8400,-0.1395
8401,-0.1793
8402,-0.1594
8403,-0.1395
8404,-0.0996
8405,-0.2191
8406,-0.2391
8407,-0.1793
8408,-0.0996
8409,0.0598
8410,0.2391
8411,0.3586
8412,0.2191
8413,0.0996
8414,-0.0598
8415,-0.1395
8416,-0.2590
8417,-0.2191
8418,-0.1195
8419,-0.1195
8420,-0.0199
8421,-0.0199
8422,0.3188
8423,0.5379
8424,0.5777
8425,0.4582
8426,0.2391
8427,0.0797
8428,-0.3387
8429,-0.8367
8430,-0.6773
8431,-0.3387
8432,-0.2988
8433,-0.0996
8434,0.0996
8435,0.1793
8436,0.2590
8437,0.1195
8438,-0.2590
8439,-0.2391
8440,-0.3387
8441,-0.2789
8442,-0.1195
8443,-0.0797
8444,-0.0398
8445,-0.0996
8446,-0.0398
8447,0.0797
8448,0.1992
8449,0.2789
8450,0.3188
8451,0.2789
8452,0.2191
8453,0.1195
8454,0.1395
8455,0.1793
8456,0.0996
8457,0.1195
8458,0.0398
8459,-0.0996
8460,-0.1594
8461,-0.0996
8462,0.0797
8463,0.1395
8464,0.1395
8465,0.2391
8466,0.0996
8467,0.0398
8468,0.0797
8469,0.0000
8470,-0.1594
8471,-0.2988
8472,-0.3188
8473,-0.2391
8474,-0.1992
8475,-0.0398
8476,-0.0598
8477,0.0598
8478,0.0000
8479,-0.0398
8480,-0.0199
8481,0.0000
8482,0.0199
8483,-0.0797
8484,0.0000
8485,0.0598
8486,0.0000
8487,0.0199
8488,0.0598
8489,-0.1195
8490,-0.0996
8491,-0.0398
8492,0.0398
8493,-0.1395
8494,-0.2988
8495,-0.2391
8496,-0.1395
8497,-0.0398
8498,0.0996
8499,0.1793
8500,0.0199
8501,-0.0797
8502,-0.0797
8503,-0.1793
8504,-0.4383
8505,-0.5379
8506,-0.4582
8507,-0.2789
8508,-0.1195
8509,-0.1793
8510,-0.2789
8511,-0.1992
8512,-0.1992
8513,-0.1195
8514,0.0000
8515,0.0996
8516,0.0797
8517,0.0598
8518,-0.0996
8519,-0.2191
8520,-0.0996
8521,0.2191
8522,0.4582
8523,0.4980
8524,0.3984
8525,0.3188
8526,0.1395
8527,-0.1395
8528,-0.4184
8529,-0.7172
8530,-0.6176
8531,-0.3188
8532,-0.1195
8533,-0.1195
8534,-0.0398
8535,0.0398
8536,0.0000
8537,0.0398
8538,0.1195
8539,0.0996
8540,0.2590
8541,0.2789
8542,0.2988
8543,0.2789
8544,0.2789
8545,0.0996
8546,-0.1195
8547,-0.4582
8548,-0.5379
8549,-0.4980
8550,-0.4184
8551,-0.3586
8552,-0.0797
8553,0.0996
8554,0.1992
8555,0.2391
8556,0.2988
8557,0.2789
8558,0.2789
8559,0.2191
8560,0.1195
8561,0.0996
8562,0.0199
8563,-0.0199
8564,-0.0598
8565,-0.3387
8566,-0.4582
8567,-0.2789
8568,-0.1594
8569,-0.0996
8570,-0.1793
8571,-0.0598
8572,0.1594
8573,0.2590
8574,0.2590
8575,0.1793
8576,0.0398
8577,-0.0797
8578,-0.2590
8579,-0.2988
8580,-0.2391
8581,-0.1793
8582,-0.0199
8583,0.0797
8584,0.0199
8585,0.0797
8586,0.0797
8587,-0.0996
8588,-0.1594
8589,-0.2789
8590,-0.1793
8591,-0.1195
8592,-0.1395
8593,-0.1992
8594,-0.2988
8595,-0.2789
8596,-0.1594
8597,-0.0797
8598,-0.0398
8599,-0.0199
8600,-0.0398
8601,-0.0797
8602,0.0398
8603,0.0000
8604,0.0398
8605,0.1992
8606,0.2590
8607,0.2391
8608,0.0996
8609,-0.1395
8610,-0.1195
8611,-0.1395
8612,-0.2191
8613,-0.3785
8614,-0.4383
8615,-0.4184
8616,-0.3188
8617,-0.2988
8618,-0.0996
8619,0.0797
8620,0.1594
8621,0.1793
8622,0.1395
8623,0.0996
8624,0.0000
8625,-0.1992
8626,-0.4184
8627,-0.3785
8628,-0.3188
8629,-0.0797
8630,0.1195
8631,0.2391
8632,0.3188
8633,0.3188
8634,0.2191
8635,0.1195
8636,0.0000
8637,-0.1793
8638,-0.3586
8639,-0.2191
8640,-0.0598
8641,0.0199
8642,0.0797
8643,0.1594
8644,0.1793
8645,0.2191
8646,0.1395
8647,0.1195
8648,0.1195
8649,0.0797
8650,-0.0598
8651,-0.0797
8652,0.0996
8653,0.0598
8654,0.1195
8655,0.0996
8656,0.0398
8657,0.1195
8658,0.0598
8659,0.0797
8660,0.1395
8661,0.0996
8662,0.1594
8663,0.0996
8664,0.0996
8665,0.1195
8666,0.2391
8667,0.2391
8668,0.2789
8669,0.3387
8670,0.2191
8671,0.1793
8672,0.0797
8673,0.0996
8674,0.2191
8675,0.2988
8676,0.2391
8677,0.2590
8678,0.1793
8679,-0.0797
8680,-0.1992
8681,-0.4184
8682,-0.6176
8683,-0.4383
8684,-0.2391
8685,-0.0598
8686,0.0996
8687,0.1793
8688,0.2391
8689,0.2191
8690,0.2590
8691,0.1992
8692,-0.0199
8693,-0.0598
8694,-0.0598
8695,-0.0199
8696,-0.0398
8697,-0.0797
8698,-0.2391
8699,-0.0797
8700,0.1395
8701,0.1195
8702,0.1793
8703,0.2988
8704,0.2988
8705,0.0000
8706,-0.1992
8707,-0.2988
8708,-0.5379
8709,-0.6574
8710,-0.4582
8711,-0.2988
8712,-0.2191
8713,-0.1594
8714,0.0598
8715,0.2590
8716,0.4383
8717,0.4383
8718,0.3188
8719,0.0996
8720,-0.1992
8721,-0.3387
8722,-0.4383
8723,-0.5379
8724,-0.3387
8725,-0.0797
8726,0.0199
8727,0.0996
8728,0.0797
8729,0.0797
8730,0.0199
8731,-0.0199
8732,-0.0797
8733,-0.0996
8734,-0.0398
8735,0.0398
8736,0.0797
8737,0.2191
8738,0.2191
8739,0.2191
8740,0.1594
8741,0.0797
8742,-0.0199
8743,-0.1793
8744,-0.1395
8745,-0.0797
8746,-0.2590
8747,-0.3785
8748,-0.1793
8749,-0.0398
8750,0.1195
8751,0.1395
8752,0.1594
8753,0.2191
8754,0.2191
8755,0.2191
8756,0.0199
8757,-0.0398
8758,0.0199
8759,0.0398
8760,0.0199
8761,-0.0598
8762,-0.2191
8763,-0.2789
8764,-0.2789
8765,-0.3188
8766,-0.1395
8767,-0.0996
8768,-0.0598
8769,0.1395
8770,0.2590
8771,0.1793
8772,0.1992
8773,0.0797
8774,-0.0996
8775,-0.2988
8776,-0.4582
8777,-0.5180
8778,-0.3984
8779,-0.0797
8780,0.0398
8781,0.1195
8782,0.1395
8783,0.1793
8784,0.2988
8785,0.3984
8786,0.4184
8787,0.3984
8788,0.2590
8789,-0.0598
8790,-0.2191
8791,-0.4184
8792,-0.3785
8793,-0.4781
8794,-0.3785
8795,-0.1395
8796,-0.0199
8797,0.0000
8798,-0.0797
8799,0.0398
8800,0.1594
8801,0.2789
8802,0.2590
8803,0.1195
8804,-0.0598
8805,-0.1594
8806,-0.2391
8807,-0.3785
8808,-0.3586
8809,-0.1992
8810,-0.1195
8811,0.0000
8812,0.0797
8813,0.1594
8814,0.1992
8815,0.2391
8816,0.2988
8817,0.3387
8818,0.3188
8819,0.2191
8820,0.1594
8821,0.0000
8822,-0.0996
8823,-0.4184
8824,-0.2988
8825,-0.1594
8826,-0.1594
8827,-0.1594
8828,-0.1395
8829,-0.2191
8830,-0.2391
8831,-0.2590
8832,-0.1195
8833,0.0199
8834,0.1793
8835,0.1395
8836,0.2590
8837,0.2391
8838,0.1793
8839,0.1195
8840,0.0996
8841,0.0000
8842,-0.0199
8843,-0.0598
8844,-0.1395
8845,-0.0996
8846,0.0598
8847,0.2391
8848,0.2191
8849,0.0598
8850,0.1195
8851,0.2391
8852,0.1395
8853,-0.1594
8854,-0.6574
8855,-0.6773
8856,-0.4980
8857,-0.2789
8858,-0.1195
8859,-0.1195
8860,0.0598
8861,0.1793
8862,0.4184
8863,0.5777
8864,0.6176
8865,0.4383
8866,0.2789
8867,0.0199
8868,-0.0996
8869,-0.1594
8870,-0.2391
8871,-0.1793
8872,-0.0199
8873,0.0797
8874,0.1395
8875,0.1395
8876,0.1793
8877,0.2988
8878,0.2789
8879,0.2988
8880,0.2590
8881,0.2988
8882,0.4582
8883,0.3387
8884,0.1395
8885,-0.0598
8886,-0.1195
8887,-0.2988
8888,-0.2988
8889,-0.1594
8890,-0.0199
8891,-0.0199
8892,0.2191
8893,0.1195
8894,-0.0797
8895,-0.1793
8896,-0.1395
8897,-0.1195
8898,-0.0199
8899,0.0598
8900,0.0398
8901,-0.0398
8902,0.0598
8903,-0.0996
8904,-0.0199
8905,-0.0199
8906,-0.0797
8907,-0.1195
8908,0.0598
8909,0.1395
8910,0.1992
8911,0.1793
8912,0.1594
8913,0.0996
8914,-0.0398
8915,-0.1594
8916,-0.2988
8917,-0.3586
8918,-0.2590
8919,-0.1793
8920,-0.0199
8921,0.1594
8922,0.1992
8923,0.1195
8924,0.1594
8925,0.1195
8926,-0.0398
8927,-0.2391
8928,-0.3387
8929,-0.3387
8930,-0.3984
8931,-0.5379
8932,-0.2988
8933,0.0598
8934,0.2988
8935,0.2789
8936,0.2988
8937,0.2391
8938,0.0398
8939,-0.1395
8940,-0.1992
8941,-0.0797
8942,-0.1594
8943,-0.2191
8944,-0.2988
8945,-0.3387
8946,-0.2988
8947,-0.1992
8948,-0.1992
8949,-0.0996
8950,0.0996
8951,0.1793
8952,0.1195
8953,0.1195
8954,-0.0199
8955,-0.1195
8956,-0.2191
8957,-0.4781
8958,-0.5977
8959,-0.2988
8960,-0.3984
8961,-0.4980
8962,-0.3188
8963,-0.3387
8964,-0.4383
8965,-0.3586
8966,-0.1195
8967,0.0199
8968,0.0797
8969,0.1793
8970,0.2191
8971,0.2391
8972,0.1395
8973,0.0199
8974,-0.0398
8975,0.0199
8976,0.0996
8977,0.1195
8978,0.0996
8979,0.0996
8980,0.0797
8981,-0.0398
8982,0.0199
8983,0.0996
8984,0.1395
8985,0.2391
8986,0.3785
8987,0.4184
8988,0.3586
8989,0.2391
8990,0.0398
8991,-0.2391
8992,-0.5379
8993,-0.6574
8994,-0.5379
8995,-0.3387
8996,-0.1793
8997,-0.0398
8998,0.0199
8999,0.0996
9000,0.1594
9001,0.1992
9002,0.2391
9003,0.0797
9004,0.0199
9005,0.0199
9006,0.0996
9007,0.1395
9008,0.1195
9009,0.3188
9010,0.4781
9011,0.4980
9012,0.4383
9013,0.2988
9014,0.1395
9015,-0.1992
9016,-0.6773
9017,-0.7969
9018,-0.7371
9019,-0.3785
9020,-0.2191
9021,-0.2391
9022,-0.2191
9023,-0.1992
9024,-0.1395
9025,-0.0598
9026,0.0996
9027,0.1594
9028,0.2590
9029,0.1195
9030,0.1195
9031,-0.0797
9032,-0.1395
9033,-0.0996
9034,-0.0199
9035,-0.0398
9036,-0.0199
9037,0.0398
9038,0.0996
9039,0.0797
9040,0.1594
9041,0.1195
9042,0.0797
9043,-0.0598
9044,-0.2590
9045,-0.4383
9046,-0.4184
9047,-0.4582
9048,-0.2590
9049,-0.1594
9050,-0.0199
9051,0.0598
9052,0.1793
9053,0.1395
9054,0.2391
9055,0.2391
9056,0.1195
9057,-0.0598
9058,0.0199
9059,0.0996
9060,0.1594
9061,0.1594
9062,-0.0199
9063,-0.0996
9064,-0.0996
9065,-0.1195
9066,-0.0996
9067,-0.0199
9068,0.0598
9069,-0.0199
9070,0.0398
9071,0.0398
9072,0.1992
9073,0.1195
9074,0.0996
9075,0.0996
9076,0.0199
9077,-0.0598
9078,0.0199
9079,0.1195
9080,0.2191
9081,0.3188
9082,0.4184
9083,0.3785
9084,0.3586
9085,0.2391
9086,0.0797
9087,-0.1594
9088,-0.3785
9089,-0.3387
9090,-0.2191
9091,-0.2590
9092,-0.2391
9093,-0.1793
9094,-0.0398
9095,0.1395
9096,0.1793
9097,0.2191
9098,0.2988
9099,0.3586
9100,0.2191
9101,0.0199
9102,0.0000
9103,0.0398
9104,0.0598
9105,-0.0398
9106,-0.2789
9107,-0.3188
9108,-0.1594
9109,0.0398
9110,0.0996
9111,0.0996
9112,0.0996
9113,0.1395
9114,0.2391
9115,0.2590
9116,0.1395
9117,0.0797
9118,0.0398
9119,-0.1594
9120,-0.2590
9121,-0.4383
9122,-0.6375
9123,-0.5180
9124,-0.3785
9125,-0.2191
9126,-0.1594
9127,0.0598
9128,0.1992
9129,0.2391
9130,0.1992
9131,0.2191
9132,0.1195
9133,0.0797
9134,0.0598
9135,0.1195
9136,0.1793
9137,0.1195
9138,0.0000
9139,0.0000
9140,0.0598
9141,0.0598
9142,0.1395
9143,0.0797
9144,-0.0797
9145,-0.0797
9146,0.0000
9147,-0.0398
9148,0.0199
9149,0.0797
9150,0.1594
9151,0.1594
9152,0.2191
9153,0.2391
9154,0.1395
9155,0.0996
9156,0.1594
9157,0.2191
9158,0.1594
9159,0.1992
9160,0.1793
9161,0.0398
9162,-0.1195
9163,-0.2391
9164,-0.3387
9165,-0.2590
9166,-0.3387
9167,-0.2590
9168,-0.1195
9169,-0.0598
9170,-0.0199
9171,-0.0996
9172,-0.0797
9173,-0.0598
9174,-0.0598
9175,0.1195
9176,0.0000
9177,-0.0797
9178,0.0398
9179,0.1992
9180,0.2988
9181,0.4184
9182,0.4781
9183,0.5578
9184,0.5180
9185,0.2789
9186,0.0598
9187,-0.3188
9188,-0.5977
9189,-0.4781
9190,-0.3387
9191,-0.3586
9192,-0.3984
9193,-0.1992
9194,-0.1395
9195,-0.0398
9196,0.0000
9197,0.0996
9198,-0.0199
9199,-0.0199
9200,0.0598
9201,0.0398
9202,0.0797
9203,0.1793
9204,0.2391
9205,0.1594
9206,-0.0797
9207,-0.0398
9208,0.0199
9209,0.0000
9210,-0.0996
9211,-0.0598
9212,-0.0598
9213,0.0000
9214,-0.0199
9215,0.1195
9216,0.2191
9217,0.0797
9218,-0.1594
9219,-0.1594
9220,-0.0797
9221,-0.1793
9222,-0.3188
9223,-0.2191
9224,-0.1992
9225,-0.1395
9226,0.0000
9227,0.0398
9228,0.0598
9229,0.0996
9230,0.0996
9231,0.0797
9232,0.0797
9233,0.0000
9234,-0.0996
9235,-0.0598
9236,-0.1195
9237,-0.1195
9238,-0.2988
9239,-0.2391
9240,-0.0797
9241,0.0598
9242,0.1793
9243,0.1395
9244,0.0996
9245,0.1195
9246,0.1992
9247,0.2590
9248,0.1395
9249,-0.0199
9250,-0.0996
9251,-0.0598
9252,-0.1594
9253,-0.2191
9254,-0.2590
9255,-0.2391
9256,-0.0797
9257,0.0598
9258,-0.0398
9259,-0.1195
9260,-0.2590
9261,-0.2391
9262,-0.1594
9263,-0.1793
9264,0.0797
9265,0.3984
9266,0.4781
9267,0.6176
9268,0.6973
9269,0.5578
9270,0.3387
9271,0.1594
9272,-0.2590
9273,-0.3586
9274,-0.2789
9275,-0.2789
9276,-0.2988
9277,-0.3586
9278,-0.3586
9279,-0.2590
9280,-0.0996
9281,0.0199
9282,0.1992
9283,0.2191
9284,0.1793
9285,0.1594
9286,0.0398
9287,0.0398
9288,0.1992
9289,0.2391
9290,0.2789
9291,0.2590
9292,0.2789
9293,0.0000
9294,-0.2191
9295,-0.2590
9296,-0.2191
9297,-0.2391
9298,-0.2590
9299,-0.1195
9300,0.0000
9301,0.0000
9302,0.1594
9303,0.2590
9304,0.3188
9305,0.0398
9306,-0.0598
9307,-0.0199
9308,-0.0398
9309,-0.0598
9310,-0.1594
9311,-0.0996
9312,-0.1594
9313,-0.1793
9314,-0.2789
9315,-0.2789
9316,-0.0398
9317,0.2191
9318,0.2391
9319,0.2391
9320,0.2391
9321,0.2789
9322,0.2590
9323,0.2789
9324,0.3785
9325,0.2988
9326,0.3188
9327,0.2988
9328,0.1395
9329,0.1594
9330,0.1594
9331,0.0797
9332,-0.0398
9333,-0.1594
9334,-0.1992
9335,-0.2789
9336,-0.1992
9337,-0.0996
9338,-0.0598
9339,0.0000
9340,0.0398
9341,0.1395
9342,0.1793
9343,0.2590
9344,0.3387
9345,0.2789
9346,0.1594
9347,0.1594
9348,0.1195
9349,0.0598
9350,0.0000
9351,-0.1195
9352,-0.4980
9353,-0.6973
9354,-0.4582
9355,-0.2590
9356,0.0000
9357,-0.1195
9358,-0.2391
9359,-0.1793
9360,-0.1992
9361,-0.2789
9362,-0.4582
9363,-0.2988
9364,-0.0398
9365,0.1793
9366,0.2590
9367,0.2590
9368,0.1594
9369,0.0797
9370,-0.1195
9371,-0.2391
9372,-0.4980
9373,-0.5379
9374,-0.0398
9375,0.0598
9376,0.1793
9377,0.3188
9378,0.2789
9379,0.1594
9380,0.0000
9381,-0.0797
9382,0.0996
9383,0.1195
9384,-0.3785
9385,-0.5777
9386,-0.6973
9387,-0.7770
9388,-0.5777
9389,-0.2789
9390,-0.0996
9391,-0.0199
9392,0.0398
9393,0.1992
9394,0.2988
9395,0.4184
9396,0.4184
9397,0.3984
9398,0.3586
9399,0.1793
9400,0.0398
9401,-0.1793
9402,-0.2789
9403,-0.4184
9404,-0.1793
9405,0.0199
9406,0.0797
9407,0.0797
9408,0.1395
9409,0.1793
9410,0.1793
9411,0.2391
9412,0.1793
9413,0.1992
9414,0.1594
9415,0.1793
9416,0.1793
9417,0.2191
9418,0.1793
9419,0.2590
9420,0.1992
9421,0.0996
9422,0.1793
9423,0.1195
9424,0.0797
9425,0.0797
9426,0.1594
9427,0.2789
9428,0.1992
9429,0.0996
9430,0.0598
9431,-0.0598
9432,-0.0199
9433,0.0797
9434,0.1992
9435,0.0996
9436,0.1195
9437,0.2391
9438,0.1195
9439,0.1594
9440,-0.0797
9441,-0.1793
9442,-0.1195
9443,-0.0598
9444,0.0000
9445,0.0199
9446,0.0199
9447,-0.2789
9448,-0.4781
9449,-0.3984
9450,-0.3387
9451,-0.2391
9452,-0.1395
9453,-0.0996
9454,-0.0996
9455,-0.0996
9456,-0.0797
9457,0.0000
9458,0.1195
9459,0.2191
9460,0.1793
9461,0.2191
9462,0.2988
9463,0.3387
9464,0.1594
9465,-0.1793
9466,-0.4980
9467,-0.6574
9468,-0.8766
9469,-0.8965
9470,-0.6773
9471,-0.3188
9472,-0.1195
9473,0.0797
9474,0.2391
9475,0.2789
9476,0.2988
9477,0.3387
9478,0.2191
9479,-0.0199
9480,-0.3188
9481,-0.4781
9482,-0.4184
9483,-0.1594
9484,0.0199
9485,0.0598
9486,0.0996
9487,0.1395
9488,0.0996
9489,0.0199
9490,-0.1395
9491,-0.1395
9492,-0.0797
9493,-0.0199
9494,-0.0398
9495,-0.1195
9496,-0.1395
9497,-0.1793
9498,-0.2391
9499,-0.2988
9500,-0.2191
9501,-0.1195
9502,0.1395
9503,0.1395
9504,0.1793
9505,0.2191
9506,0.2988
9507,0.2590
9508,0.2391
9509,0.1793
9510,0.0398
9511,-0.3387
9512,-0.4980
9513,-0.3785
9514,-0.1793
9515,0.0199
9516,0.0996
9517,0.0598
9518,0.1195
9519,-0.0398
9520,-0.0199
9521,0.0398
9522,0.1992
9523,0.1594
9524,0.0199
9525,-0.0199
9526,-0.1195
9527,-0.2988
9528,-0.4383
9529,-0.3785
9530,-0.1992
9531,0.0996
9532,0.1992
9533,0.1395
9534,0.0598
9535,0.0398
9536,0.0199
9537,-0.0996
9538,-0.1793
9539,-0.1594
9540,-0.1395
9541,-0.0996
9542,0.0797
9543,0.3586
9544,0.4980
9545,0.4383
9546,0.3984
9547,-0.0598
9548,-0.4980
9549,-0.7570
9550,-0.8766
9551,-0.6773
9552,-0.4582
9553,-0.2789
9554,0.0000
9555,0.1594
9556,0.1594
9557,0.0996
9558,0.0199
9559,0.0199
9560,0.1195
9561,0.0199
9562,-0.0199
9563,-0.0797
9564,-0.0199
9565,0.0398
9566,0.0598
9567,-0.0598
9568,-0.2988
9569,-0.3188
9570,-0.1395
9571,0.0598
9572,0.1395
9573,0.1395
9574,0.1395
9575,0.3387
9576,0.6375
9577,0.6574
9578,0.6973
9579,0.5578
9580,0.4980
9581,0.0598
9582,-0.5977
9583,-0.9762
9584,-0.6773
9585,-0.4184
9586,-0.2789
9587,-0.1395
9588,0.0199
9589,0.1195
9590,0.1793
9591,0.1992
9592,0.1594
9593,0.1793
9594,0.2391
9595,0.3188
9596,0.2988
9597,0.1992
9598,0.1793
9599,0.0398
9600,0.0000
9601,-0.1594
9602,-0.1992
9603,-0.1594
9604,0.0598
9605,0.1793
9606,0.2590
9607,0.2590
9608,0.2391
9609,0.1992
9610,0.0996
9611,-0.0598
9612,0.0199
9613,0.1594
9614,0.0398
9615,-0.1992
9616,-0.3387
9617,-0.3586
9618,-0.3785
9619,-0.3586
9620,-0.3188
9621,-0.1793
9622,-0.0199
9623,0.0598
9624,-0.0598
9625,-0.0598
9626,0.1594
9627,0.2191
9628,0.3586
9629,0.3984
9630,0.2391
9631,0.0000
9632,-0.1395
9633,-0.3387
9634,-0.6773
9635,-0.6973
9636,-0.5777
9637,-0.2789
9638,-0.1395
9639,-0.0199
9640,0.0598
9641,0.0797
9642,0.1195
9643,0.1992
9644,0.1594
9645,0.2191
9646,0.2590
9647,0.0797
9648,-0.0996
9649,-0.1793
9650,-0.2391
9651,-0.5180
9652,-0.5977
9653,-0.5180
9654,-0.3984
9655,-0.1992
9656,0.0199
9657,0.2789
9658,0.4184
9659,0.4184
9660,0.2988
9661,0.0797
9662,-0.1992
9663,-0.3387
9664,-0.3188
9665,-0.2191
9666,-0.1594
9667,0.0000
9668,0.0996
9669,0.0996
9670,0.1793
9671,0.2391
9672,0.1395
9673,0.1195
9674,0.1395
9675,0.1594
9676,0.1195
9677,0.1395
9678,0.0797
9679,0.0598
9680,-0.0398
9681,-0.0996
9682,-0.0598
9683,-0.0199
9684,0.0797
9685,0.0996
9686,0.1395
9687,0.2191
9688,0.1992
9689,-0.0199
9690,-0.1793
9691,-0.0199
9692,-0.0199
9693,-0.0398
9694,0.0199
9695,0.0398
9696,-0.2590
9697,-0.3188
9698,-0.2191
9699,-0.2191
9700,-0.2191
9701,-0.1793
9702,-0.0996
9703,0.0398
9704,0.0398
9705,0.0398
9706,0.0199
9707,0.0398
9708,0.0996
9709,0.0598
