Time (s),Kanaal 1
0,0.2988
1,0.3188
2,0.3188
3,0.2988
4,0.2789
5,0.2988
6,0.3387
7,0.3188
8,0.2391
9,0.2391
10,0.2789
11,0.1992
12,0.1594
13,0.1195
14,0.1395
15,0.1594
16,0.1395
17,0.1793
18,0.0797
19,0.0996
20,0.1195
21,0.0797
22,0.1793
23,0.3188
24,0.3785
25,0.2988
26,0.2789
27,0.1395
28,0.1395
29,0.0000
30,-0.0598
31,-0.1594
32,-0.0996
33,-0.0398
34,-0.0598
35,0.0398
36,0.0398
37,0.0000
38,0.0598
39,0.0398
40,0.0797
41,0.0996
42,0.1395
43,0.1992
44,0.1992
45,0.1992
46,0.1992
47,0.1992
48,0.2391
49,0.1992
50,0.1594
51,0.1195
52,0.1395
53,0.1395
54,0.0996
55,0.1195
56,0.1395
57,0.0996
58,0.1195
59,0.1395
60,0.1793
61,0.1992
62,0.2391
63,0.3188
64,0.2988
65,0.3188
66,0.3387
67,0.2590
68,0.1992
69,0.1594
70,0.0598
71,0.0598
72,0.0598
73,0.0000
74,0.0598
75,0.0199
76,0.0598
77,0.0199
78,0.0996
79,0.0797
80,0.1395
81,0.1793
82,0.1594
83,0.1395
84,0.1395
85,0.1195
86,0.0797
87,0.0000
88,0.0398
89,0.0996
90,0.1195
91,0.1594
92,0.2191
93,0.2391
94,0.1793
95,0.1793
96,0.0996
97,0.0598
98,0.0000
99,0.0398
100,0.0398
101,0.0398
102,0.0996
103,0.0996
104,0.1594
105,0.1594
106,0.1594
107,0.1793
108,0.1594
109,0.1793
110,0.1793
111,0.2391
112,0.2191
113,0.1992
114,0.1992
115,0.1793
116,0.1793
117,0.1992
118,0.1992
119,0.1992
120,0.1793
121,0.2391
122,0.2191
123,0.2590
124,0.2590
125,0.1793
126,0.2391
127,0.2789
128,0.2191
129,0.2789
130,0.3387
131,0.2789
132,0.2590
133,0.2391
134,0.1992
135,0.1793
136,0.1793
137,0.0797
138,0.1395
139,0.1395
140,0.1395
141,0.1992
142,0.1992
143,0.2391
144,0.2391
145,0.1793
146,0.2391
147,0.2391
148,0.2590
149,0.2988
150,0.3188
151,0.2590
152,0.2191
153,0.2789
154,0.2391
155,0.0996
156,0.1395
157,0.0398
158,0.0398
159,0.0797
160,0.0199
161,0.0199
162,0.0398
163,0.0000
164,0.0199
165,0.0199
166,0.0199
167,0.1195
168,0.1395
169,0.0996
170,0.0598
171,-0.0598
172,-0.1395
173,-0.1793
174,-0.1395
175,-0.1793
176,-0.1793
177,-0.2191
178,-0.1195
179,-0.0797
180,-0.0598
181,0.0199
182,-0.0199
183,0.0000
184,0.0000
185,0.0000
186,-0.0199
187,0.0000
188,0.0398
189,0.0199
190,0.0000
191,0.0000
192,0.0398
193,0.0398
194,0.0598
195,0.0199
196,0.1195
197,0.1793
198,0.1195
199,0.1395
200,0.0797
201,-0.0398
202,0.0199
203,-0.0598
204,-0.1395
205,-0.0797
206,-0.0398
207,-0.0398
208,0.0000
209,-0.0398
210,-0.0598
211,-0.0398
212,-0.0996
213,-0.1395
214,-0.1395
215,-0.1594
216,-0.1594
217,-0.1395
218,-0.1395
219,-0.0797
220,-0.0797
221,-0.0996
222,-0.1793
223,-0.1793
224,-0.1992
225,-0.1992
226,-0.2391
227,-0.1992
228,-0.1992
229,-0.2191
230,-0.2191
231,-0.2391
232,-0.1992
233,-0.2191
234,-0.2191
235,-0.2191
236,-0.2391
237,-0.2391
238,-0.1793
239,-0.1594
240,-0.1793
241,-0.2789
242,-0.3586
243,-0.4383
244,-0.4980
245,-0.4980
246,-0.5379
247,-0.5379
248,-0.4383
249,-0.4184
250,-0.3586
251,-0.3586
252,-0.3586
253,-0.3387
254,-0.3586
255,-0.3387
256,-0.3586
257,-0.3785
258,-0.2988
259,-0.3984
260,-0.3984
261,-0.4184
262,-0.3984
263,-0.4184
264,-0.4184
265,-0.4781
266,-0.3785
267,-0.3984
268,-0.3586
269,-0.3785
270,-0.3586
271,-0.3387
272,-0.3785
273,-0.2988
274,-0.2988
275,-0.2191
276,-0.2789
277,-0.2391
278,-0.2391
279,-0.1992
280,-0.2391
281,-0.1594
282,-0.1793
283,-0.1395
284,-0.1594
285,-0.1594
286,-0.1195
287,-0.0797
288,0.0199
289,0.0000
290,-0.0398
291,-0.0598
292,-0.0398
293,-0.0598
294,-0.0996
295,-0.1195
296,-0.1594
297,-0.1793
298,-0.1195
299,-0.1195
300,-0.0797
301,-0.0398
302,-0.0398
303,-0.0598
304,-0.0797
305,-0.0797
306,-0.1395
307,-0.1594
308,-0.1195
309,-0.1395
310,-0.1594
311,-0.1992
312,-0.1594
313,-0.1594
314,-0.1395
315,-0.0996
316,0.0199
317,0.0000
318,0.0199
319,-0.0598
320,-0.0996
321,-0.1793
322,-0.1395
323,-0.1594
324,-0.1594
325,-0.1594
326,-0.1195
327,-0.1395
328,-0.1793
329,-0.1992
330,-0.2191
331,-0.1793
332,-0.2391
333,-0.2191
334,-0.1195
335,-0.0996
336,-0.0996
337,-0.0199
338,-0.0398
339,0.0199
340,0.0398
341,0.0398
342,0.0797
343,0.0996
344,0.0598
345,0.0598
346,0.0996
347,0.1195
348,0.1195
349,0.1395
350,0.1395
351,0.1395
352,0.0996
353,0.0996
354,0.0996
355,0.0996
356,0.1395
357,0.1395
358,0.1793
359,0.1594
360,0.2191
361,0.2789
362,0.2590
363,0.2391
364,0.1594
365,0.1395
366,0.1195
367,0.1195
368,0.0598
369,0.0797
370,0.0598
371,0.0598
372,0.1195
373,0.1395
374,0.1594
375,0.2191
376,0.1594
377,0.1594
378,0.1594
379,0.1594
380,0.1793
381,0.1992
382,0.1793
383,0.2391
384,0.2391
385,0.1793
386,0.1793
387,0.1395
388,0.1594
389,0.1793
390,0.2789
391,0.2988
392,0.2789
393,0.1992
394,0.1793
395,0.0797
396,0.0598
397,0.0000
398,-0.0199
399,-0.0797
400,-0.0598
401,-0.0598
402,-0.0598
403,-0.0996
404,-0.0797
405,-0.0996
406,-0.0598
407,-0.0398
408,-0.0199
409,-0.0398
410,-0.0398
411,0.0000
412,0.0199
413,0.0996
414,0.0398
415,0.0398
416,0.0199
417,-0.0398
418,0.0000
419,0.0199
420,0.1395
421,0.1793
422,0.0996
423,0.0199
424,0.0000
425,0.0199
426,0.0000
427,-0.0598
428,-0.0797
429,0.0398
430,0.0797
431,0.1195
432,0.1395
433,0.0996
434,0.1395
435,0.1395
436,0.1793
437,0.1992
438,0.2391
439,0.1992
440,0.2789
441,0.2191
442,0.2191
443,0.2391
444,0.2988
445,0.2590
446,0.2789
447,0.2789
448,0.2988
449,0.2988
450,0.2789
451,0.2590
452,0.2191
453,0.2391
454,0.2391
455,0.2191
456,0.2789
457,0.2789
458,0.3586
459,0.3188
460,0.2988
461,0.3586
462,0.3586
463,0.3188
464,0.2789
465,0.2590
466,0.3188
467,0.4184
468,0.3984
469,0.3387
470,0.2789
471,0.2191
472,0.2191
473,0.1594
474,0.1395
475,0.0996
476,0.1195
477,0.0797
478,0.0996
479,0.0598
480,0.0598
481,0.0398
482,0.0797
483,0.0797
484,0.1395
485,0.1195
486,0.1195
487,0.0996
488,0.1395
489,0.0598
490,0.0398
491,0.0199
492,-0.0398
493,-0.0996
494,-0.0797
495,-0.1195
496,-0.1195
497,-0.0996
498,-0.0797
499,-0.1395
500,-0.0598
501,-0.0797
502,-0.0996
503,-0.0598
504,0.0000
505,-0.0398
506,-0.0398
507,-0.0199
508,-0.0199
509,-0.0598
510,-0.0199
511,-0.0598
512,-0.0996
513,-0.0996
514,-0.0996
515,-0.0398
516,-0.0199
517,-0.0398
518,-0.0398
519,-0.0398
520,-0.0797
521,-0.1395
522,-0.2391
523,-0.1793
524,-0.2391
525,-0.2590
526,-0.2789
527,-0.2590
528,-0.2590
529,-0.2391
530,-0.1992
531,-0.2391
532,-0.1793
533,-0.1793
534,-0.1594
535,-0.1395
536,-0.0398
537,-0.0797
538,-0.0598
539,-0.0797
540,-0.0996
541,-0.0598
542,-0.0398
543,0.0000
544,0.0000
545,-0.0199
546,0.0199
547,-0.0598
548,-0.0996
549,-0.1195
550,-0.0797
551,-0.0797
552,-0.1395
553,-0.0996
554,-0.0797
555,0.0000
556,0.0000
557,-0.0598
558,-0.0797
559,-0.1195
560,-0.0996
561,-0.1395
562,-0.0996
563,-0.0996
564,-0.1395
565,-0.1594
566,-0.1395
567,-0.2590
568,-0.2590
569,-0.2789
570,-0.2590
571,-0.2590
572,-0.2789
573,-0.2789
574,-0.2789
575,-0.2391
576,-0.1793
577,-0.1793
578,-0.2391
579,-0.1992
580,-0.0996
581,-0.1793
582,-0.2391
583,-0.1395
584,-0.1395
585,-0.0996
586,-0.0996
587,-0.0996
588,-0.0797
589,-0.1195
590,-0.0598
591,-0.0199
592,-0.0598
593,0.0000
594,0.0000
595,-0.0398
596,0.0000
597,0.0000
598,0.0398
599,0.0000
600,0.0000
601,-0.0398
602,-0.0598
603,-0.0398
604,-0.0996
605,-0.0797
606,-0.0797
607,-0.0598
608,-0.0598
609,-0.0598
610,-0.0797
611,-0.0598
612,-0.0797
613,-0.0996
614,-0.0797
615,-0.0797
616,-0.0797
617,-0.0797
618,-0.0398
619,-0.0398
620,-0.0199
621,-0.0797
622,0.0000
623,-0.0598
624,0.0000
625,0.0797
626,0.0996
627,0.0398
628,0.0797
629,0.0000
630,-0.0199
631,-0.0598
632,-0.1195
633,-0.0797
634,-0.0797
635,0.0000
636,-0.0398
637,-0.0598
638,-0.0398
639,-0.0199
640,0.0598
641,0.0996
642,0.1395
643,0.1195
644,0.1395
645,0.0598
646,0.0398
647,0.0000
648,-0.0199
649,-0.0996
650,-0.1195
651,-0.1594
652,-0.1594
653,-0.1594
654,-0.0598
655,-0.0398
656,-0.0598
657,0.0000
658,-0.0398
659,-0.0598
660,-0.0797
661,-0.1195
662,-0.0996
663,-0.0598
664,-0.0996
665,-0.0996
666,-0.1195
667,-0.0797
668,-0.0398
669,-0.0398
670,-0.0996
671,-0.0398
672,-0.0598
673,0.0000
674,0.0996
675,0.0996
676,0.1395
677,0.1195
678,0.1395
679,0.0598
680,0.0199
681,0.0598
682,0.0199
683,0.0598
684,0.0598
685,0.0598
686,0.0996
687,0.0996
688,0.0996
689,0.1395
690,0.2590
691,0.1395
692,0.2391
693,0.2391
694,0.1992
695,0.1793
696,0.1195
697,0.0398
698,0.0398
699,0.0199
700,0.0000
701,0.0797
702,0.0797
703,0.0996
704,0.0598
705,0.0598
706,0.1395
707,0.1395
708,0.0996
709,0.0199
710,0.0797
711,0.0797
712,0.0199
713,0.0398
714,0.0000
715,0.0000
716,-0.0199
717,0.0000
718,0.0199
719,0.0000
720,0.0598
721,0.0000
722,-0.0199
723,0.0598
724,0.0797
725,0.0398
726,0.0199
727,-0.0398
728,-0.0199
729,-0.0398
730,-0.0199
731,-0.0996
732,-0.0996
733,-0.0199
734,-0.0797
735,-0.0797
736,-0.0398
737,-0.0797
738,-0.0199
739,-0.0199
740,0.0000
741,0.0598
742,-0.0199
743,0.0000
744,-0.0199
745,0.0000
746,-0.0398
747,-0.0199
748,-0.0398
749,-0.0199
750,-0.0996
751,-0.0398
752,-0.0199
753,0.0199
754,0.0797
755,0.0996
756,0.1594
757,0.2590
758,0.2988
759,0.3387
760,0.2391
761,0.1594
762,0.0797
763,-0.0598
764,-0.0598
765,-0.1195
766,-0.1594
767,-0.1992
768,-0.1395
769,-0.0797
770,-0.0996
771,-0.0797
772,-0.1195
773,-0.1395
774,-0.1793
775,-0.0996
776,-0.1195
777,-0.1395
778,-0.1195
779,-0.1594
780,-0.1195
781,-0.0996
782,-0.1395
783,-0.0797
784,-0.1195
785,-0.0996
786,-0.0996
787,-0.0398
788,-0.0199
789,0.0000
790,-0.0398
791,0.0000
792,-0.0199
793,0.0000
794,0.0199
795,0.0398
796,0.0000
797,-0.0598
798,-0.0598
799,-0.1594
800,-0.1793
801,-0.1395
802,-0.0996
803,-0.1395
804,-0.0797
805,-0.1395
806,-0.0797
807,-0.1395
808,-0.0598
809,-0.0398
810,-0.0398
811,0.0000
812,0.0000
813,0.0000
814,0.0199
815,0.0398
816,-0.0199
817,-0.0398
818,0.0199
819,0.0199
820,0.0199
821,0.0199
822,0.0199
823,0.0398
824,0.0598
825,0.0996
826,0.1195
827,0.0398
828,0.0398
829,-0.0199
830,-0.0398
831,-0.0199
832,0.0000
833,-0.0199
834,0.0398
835,0.0996
836,0.0797
837,0.0000
838,-0.0398
839,-0.0199
840,-0.0199
841,-0.0598
842,-0.0996
843,-0.0797
844,0.0000
845,0.0199
846,-0.0199
847,0.0398
848,0.1594
849,0.1594
850,0.1992
851,0.3984
852,0.3785
853,0.4582
854,0.3785
855,0.3188
856,0.2590
857,0.1992
858,0.1395
859,0.0797
860,0.1195
861,0.0598
862,0.0598
863,0.0398
864,-0.0199
865,0.0000
866,-0.0797
867,-0.0199
868,0.0000
869,0.0199
870,0.0598
871,0.0598
872,0.0398
873,0.0000
874,0.0199
875,0.0398
876,0.0598
877,0.0199
878,-0.0199
879,0.0000
880,0.0199
881,0.0398
882,0.0996
883,0.1395
884,0.1395
885,0.0797
886,-0.0199
887,-0.0797
888,-0.0996
889,-0.0996
890,-0.1395
891,-0.1594
892,-0.1195
893,-0.1793
894,-0.0996
895,-0.0996
896,-0.0797
897,-0.0797
898,-0.0398
899,0.0398
900,-0.0598
901,-0.0996
902,-0.1594
903,-0.1992
904,-0.2391
905,-0.1992
906,-0.2391
907,-0.1992
908,-0.1992
909,-0.2191
910,-0.1992
911,-0.2191
912,-0.1992
913,-0.1992
914,-0.1195
915,-0.1395
916,-0.0598
917,-0.0199
918,0.0398
919,0.0398
920,0.0199
921,0.0598
922,0.0000
923,0.0598
924,0.0199
925,0.0598
926,0.0797
927,0.0797
928,0.0598
929,0.0199
930,0.0797
931,0.0797
932,-0.0398
933,0.0199
934,-0.0199
935,0.0000
936,0.0000
937,0.0000
938,0.0199
939,0.0199
940,0.0199
941,0.0398
942,0.0398
943,0.0199
944,0.0000
945,-0.0398
946,-0.0398
947,-0.0398
948,-0.0199
949,-0.0996
950,-0.1594
951,-0.1594
952,-0.1793
953,-0.1395
954,-0.1195
955,-0.0996
956,-0.1594
957,-0.0797
958,-0.1395
959,-0.0996
960,-0.0996
961,-0.1992
962,-0.2191
963,-0.1992
964,-0.2191
965,-0.2590
966,-0.1793
967,-0.2391
968,-0.2391
969,-0.2391
970,-0.1793
971,-0.1395
972,-0.1594
973,-0.1395
974,-0.1395
975,-0.1594
976,-0.0797
977,-0.0598
978,-0.0598
979,-0.1195
980,-0.1992
981,-0.2191
982,-0.2789
983,-0.2391
984,-0.1992
985,-0.1992
986,-0.1195
987,-0.1195
988,-0.1395
989,-0.1195
990,-0.0797
991,-0.0199
992,0.0996
993,0.1395
994,0.1195
995,0.0598
996,0.0000
997,-0.0797
998,-0.1195
999,-0.1395
1000,-0.1793
1001,-0.1594
1002,-0.1195
1003,-0.1992
1004,-0.1992
1005,-0.1793
1006,-0.1395
1007,-0.1793
1008,-0.1594
1009,-0.2391
1010,-0.1992
1011,-0.1594
1012,-0.1594
1013,-0.0797
1014,-0.1195
1015,-0.1195
1016,-0.0398
1017,0.0000
1018,0.0000
1019,0.0199
1020,-0.0199
1021,0.0199
1022,0.0598
1023,0.0199
1024,0.0598
1025,0.0996
1026,0.0598
1027,0.0996
1028,0.1195
1029,0.1195
1030,0.0996
1031,0.1195
1032,0.1594
1033,0.1594
1034,0.1793
1035,0.2191
1036,0.2391
1037,0.2789
1038,0.1992
1039,0.2789
1040,0.2988
1041,0.2391
1042,0.1594
1043,0.1195
1044,0.0996
1045,0.0598
1046,0.0000
1047,0.0598
1048,0.0598
1049,0.0000
1050,0.0000
1051,0.0398
1052,0.0996
1053,0.0797
1054,0.0598
1055,0.0199
1056,-0.0199
1057,-0.1594
1058,-0.2391
1059,-0.2191
1060,-0.1793
1061,-0.1992
1062,-0.1992
1063,-0.1793
1064,-0.0996
1065,-0.0598
1066,-0.0199
1067,-0.0398
1068,-0.0199
1069,-0.1195
1070,-0.1195
1071,-0.0797
1072,-0.0797
1073,-0.0996
1074,-0.0797
1075,-0.1195
1076,-0.0598
1077,-0.0398
1078,0.0000
1079,-0.0598
1080,-0.0398
1081,-0.0996
1082,-0.0996
1083,0.0996
1084,0.2191
1085,0.2191
1086,0.1594
1087,0.0199
1088,0.0398
1089,-0.0598
1090,-0.2391
1091,-0.2988
1092,-0.3785
1093,-0.4383
1094,-0.4184
1095,-0.4184
1096,-0.3188
1097,-0.3586
1098,-0.2391
1099,-0.1793
1100,-0.1594
1101,-0.1195
1102,-0.1395
1103,-0.0797
1104,-0.0398
1105,-0.0398
1106,-0.0797
1107,-0.0598
1108,0.0000
1109,-0.0398
1110,-0.0598
1111,-0.0598
1112,-0.0398
1113,-0.0598
1114,-0.0598
1115,0.0598
1116,0.1195
1117,0.1195
1118,0.1195
1119,0.0598
1120,-0.0398
1121,-0.1395
1122,-0.1992
1123,-0.1793
1124,-0.2988
1125,-0.2191
1126,-0.2191
1127,-0.2191
1128,-0.1992
1129,-0.1793
1130,-0.1395
1131,-0.1195
1132,-0.0996
1133,-0.0398
1134,0.0000
1135,0.0598
1136,0.0598
1137,0.0797
1138,0.1395
1139,0.1594
1140,0.1992
1141,0.1793
1142,0.1195
1143,0.1195
1144,0.1395
1145,0.1793
1146,0.1395
1147,0.1395
1148,0.2191
1149,0.3188
1150,0.3188
1151,0.2590
1152,0.2988
1153,0.3785
1154,0.3586
1155,0.2590
1156,0.0996
1157,0.0996
1158,0.1195
1159,0.0398
1160,0.0398
1161,-0.0398
1162,-0.0398
1163,-0.1395
1164,-0.2191
1165,-0.2391
1166,-0.2590
1167,-0.2789
1168,-0.1793
1169,-0.0398
1170,0.0199
1171,0.0598
1172,0.0398
1173,0.0398
1174,-0.0398
1175,-0.0797
1176,-0.0598
1177,-0.0199
1178,0.0398
1179,0.1395
1180,0.0598
1181,0.0996
1182,0.0598
1183,0.1195
1184,0.0000
1185,0.0000
1186,-0.0797
1187,-0.1395
1188,-0.2191
1189,-0.2789
1190,-0.2789
1191,-0.2590
1192,-0.2789
1193,-0.1594
1194,-0.1395
1195,-0.0996
1196,0.0000
1197,0.0000
1198,0.0199
1199,0.0398
1200,-0.0199
1201,0.0000
1202,-0.0398
1203,-0.0797
1204,-0.0996
1205,0.0000
1206,0.0000
1207,0.0199
1208,0.1395
1209,0.1793
1210,0.2191
1211,0.1594
1212,0.2391
1213,0.2191
1214,0.0996
1215,-0.0797
1216,-0.2391
1217,-0.3586
1218,-0.4781
1219,-0.4980
1220,-0.5578
1221,-0.5379
1222,-0.4582
1223,-0.3586
1224,-0.3387
1225,-0.2988
1226,-0.2391
1227,-0.2988
1228,-0.1992
1229,-0.1793
1230,-0.0398
1231,0.0000
1232,-0.0199
1233,0.0598
1234,0.1195
1235,0.0598
1236,0.0000
1237,-0.1195
1238,-0.1594
1239,-0.1395
1240,-0.1594
1241,-0.1395
1242,-0.0996
1243,-0.1594
1244,-0.1395
1245,-0.0996
1246,-0.1395
1247,-0.1195
1248,-0.0797
1249,-0.0398
1250,-0.0199
1251,0.0000
1252,0.0398
1253,0.0199
1254,0.0000
1255,-0.0199
1256,0.0398
1257,0.0797
1258,0.2191
1259,0.3785
1260,0.3785
1261,0.3188
1262,0.1793
1263,0.1594
1264,0.1793
1265,0.0797
1266,0.0797
1267,0.1992
1268,0.2191
1269,0.1195
1270,0.0398
1271,-0.1195
1272,-0.1793
1273,-0.2391
1274,-0.3188
1275,-0.3984
1276,-0.3188
1277,-0.1793
1278,-0.1395
1279,-0.0398
1280,-0.0797
1281,-0.0398
1282,-0.0797
1283,-0.0598
1284,0.0199
1285,-0.0398
1286,0.0598
1287,0.0199
1288,0.0797
1289,0.0996
1290,0.1395
1291,0.1395
1292,0.1395
1293,0.0797
1294,0.1594
1295,0.2391
1296,0.1594
1297,0.0996
1298,0.0996
1299,0.1195
1300,0.0598
1301,0.0398
1302,-0.0199
1303,-0.0797
1304,-0.0996
1305,-0.0996
1306,-0.0797
1307,-0.0996
1308,-0.0797
1309,-0.0398
1310,-0.0598
1311,0.0000
1312,-0.0199
1313,0.0199
1314,0.1195
1315,0.2789
1316,0.3785
1317,0.4781
1318,0.4781
1319,0.3785
1320,0.1793
1321,0.0199
1322,-0.0797
1323,-0.1195
1324,-0.1992
1325,-0.2789
1326,-0.2191
1327,-0.1793
1328,-0.0797
1329,-0.0598
1330,-0.0797
1331,0.0598
1332,0.1793
1333,0.2191
1334,0.0996
1335,0.0797
1336,0.0199
1337,-0.0598
1338,-0.0398
1339,-0.1195
1340,-0.0598
1341,-0.0199
1342,0.0000
1343,0.0199
1344,0.0598
1345,0.1395
1346,0.2191
1347,0.1793
1348,0.1793
1349,0.1594
1350,0.1594
1351,0.0199
1352,0.0199
1353,0.0199
1354,0.0199
1355,-0.0199
1356,0.0398
1357,0.0598
1358,0.0598
1359,0.0199
1360,0.0199
1361,0.0797
1362,0.0398
1363,0.0996
1364,0.1992
1365,0.1793
1366,0.1793
1367,0.1594
1368,0.0996
1369,-0.0398
1370,-0.1395
1371,-0.1195
1372,-0.1395
1373,-0.1395
1374,-0.0398
1375,0.0199
1376,0.0398
1377,0.1992
1378,0.2789
1379,0.2191
1380,0.2391
1381,0.2191
1382,0.2988
1383,0.2789
1384,0.1395
1385,0.0000
1386,-0.0598
1387,-0.1195
1388,-0.2191
1389,-0.2789
1390,-0.2590
1391,-0.2988
1392,-0.2590
1393,-0.2590
1394,-0.2391
1395,-0.1992
1396,-0.1594
1397,-0.1195
1398,-0.0598
1399,0.0000
1400,0.0199
1401,0.0398
1402,0.0797
1403,0.0996
1404,0.0797
1405,0.1395
1406,0.1395
1407,0.1195
1408,0.1594
1409,0.1793
1410,0.1992
1411,0.1793
1412,0.1594
1413,0.1395
1414,0.0996
1415,0.0199
1416,0.0199
1417,-0.0996
1418,-0.0598
1419,-0.0598
1420,-0.0398
1421,-0.0398
1422,0.0199
1423,0.1195
1424,0.1395
1425,0.0996
1426,0.0996
1427,0.1195
1428,0.0797
1429,0.1395
1430,0.0996
1431,0.1195
1432,0.1195
1433,0.0797
1434,0.0598
1435,-0.0398
1436,-0.0398
1437,-0.0797
1438,-0.0797
1439,0.0000
1440,0.0598
1441,0.1195
1442,0.1992
1443,0.1594
1444,0.0996
1445,0.0199
1446,-0.0996
1447,-0.1992
1448,-0.2590
1449,-0.2789
1450,-0.2789
1451,-0.2988
1452,-0.2988
1453,-0.2191
1454,-0.2391
1455,-0.1195
1456,-0.0797
1457,-0.0797
1458,-0.0398
1459,0.0000
1460,-0.0199
1461,0.0000
1462,-0.0199
1463,0.0199
1464,0.1395
1465,0.1594
1466,0.1992
1467,0.1594
1468,0.1395
1469,0.1594
1470,0.1992
1471,0.2191
1472,0.3188
1473,0.2590
1474,0.1992
1475,0.3387
1476,0.2590
1477,0.1793
1478,0.0598
1479,-0.0199
1480,-0.1793
1481,-0.2191
1482,-0.1793
1483,-0.1992
1484,-0.1395
1485,-0.0797
1486,0.1594
1487,0.2191
1488,0.2191
1489,0.1992
1490,0.0598
1491,0.0199
1492,-0.0199
1493,-0.0598
1494,-0.0199
1495,0.1195
1496,0.1395
1497,0.2391
1498,0.1992
1499,0.1395
1500,0.1395
1501,0.1395
1502,0.1395
1503,0.3387
1504,0.3984
1505,0.3984
1506,0.2789
1507,0.2191
1508,0.1594
1509,0.0598
1510,-0.0199
1511,-0.0199
1512,-0.0199
1513,0.0199
1514,-0.0398
1515,-0.0199
1516,-0.0199
1517,-0.0199
1518,0.0199
1519,0.0398
1520,0.0797
1521,0.1195
1522,0.0996
1523,0.0598
1524,0.0000
1525,-0.0797
1526,-0.1195
1527,-0.2191
1528,-0.2191
1529,-0.2191
1530,-0.2391
1531,-0.1992
1532,-0.1992
1533,-0.2191
1534,-0.1395
1535,-0.1395
1536,-0.1195
1537,-0.1395
1538,-0.0598
1539,0.0199
1540,0.0000
1541,0.0598
1542,0.1195
1543,0.2391
1544,0.3188
1545,0.2988
1546,0.0996
1547,-0.1195
1548,-0.2789
1549,-0.3785
1550,-0.4582
1551,-0.5379
1552,-0.5777
1553,-0.4980
1554,-0.3984
1555,-0.2988
1556,-0.2590
1557,-0.1992
1558,-0.1594
1559,-0.0199
1560,0.0199
1561,0.0996
1562,0.0398
1563,0.0598
1564,0.0598
1565,0.0598
1566,0.0996
1567,0.2191
1568,0.2988
1569,0.2988
1570,0.2590
1571,0.2988
1572,0.2590
1573,0.2191
1574,0.1395
1575,0.0398
1576,-0.0598
1577,-0.0398
1578,-0.0598
1579,-0.1395
1580,-0.1594
1581,-0.1594
1582,-0.1992
1583,-0.2191
1584,-0.2789
1585,-0.2590
1586,-0.2590
1587,-0.2191
1588,-0.0398
1589,-0.0398
1590,0.0398
1591,0.0797
1592,0.0996
1593,0.0797
1594,0.1594
1595,0.1992
1596,0.2590
1597,0.2191
1598,0.2191
1599,0.1594
1600,0.1793
1601,0.1594
1602,0.0996
1603,0.0797
1604,-0.0398
1605,-0.1195
1606,-0.0199
1607,-0.0598
1608,-0.0598
1609,-0.0797
1610,-0.0398
1611,-0.0398
1612,-0.0996
1613,-0.0996
1614,-0.2191
1615,-0.1992
1616,-0.1992
1617,-0.2191
1618,-0.1594
1619,-0.1395
1620,-0.0598
1621,0.0797
1622,0.0797
1623,0.1594
1624,0.0598
1625,0.1395
1626,0.0996
1627,0.0598
1628,0.0398
1629,0.0797
1630,0.0598
1631,0.0996
1632,0.1195
1633,0.2988
1634,0.3984
1635,0.4781
1636,0.4781
1637,0.2988
1638,0.1793
1639,-0.0398
1640,-0.1594
1641,-0.1992
1642,-0.1395
1643,-0.1395
1644,-0.1195
1645,-0.2191
1646,-0.1992
1647,-0.2391
1648,-0.2988
1649,-0.3586
1650,-0.2391
1651,-0.1793
1652,-0.0996
1653,-0.0598
1654,0.0199
1655,0.0797
1656,0.0996
1657,0.0598
1658,0.0996
1659,0.0996
1660,0.1992
1661,0.1992
1662,0.2789
1663,0.3586
1664,0.4980
1665,0.6176
1666,0.5977
1667,0.5777
1668,0.4582
1669,0.3188
1670,0.2391
1671,0.0797
1672,-0.0199
1673,-0.0398
1674,-0.0398
1675,-0.0199
1676,0.0598
1677,0.0996
1678,0.1594
1679,0.2391
1680,0.2590
1681,0.2988
1682,0.2391
1683,0.1992
1684,0.1195
1685,0.1395
1686,0.1594
1687,0.2391
1688,0.3586
1689,0.3188
1690,0.2789
1691,0.1992
1692,0.0398
1693,0.0000
1694,0.0000
1695,0.1395
1696,0.2590
1697,0.3188
1698,0.1594
1699,0.0398
1700,-0.1195
1701,-0.1594
1702,-0.2590
1703,-0.2590
1704,-0.2590
1705,-0.2590
1706,-0.0996
1707,-0.0797
1708,-0.0199
1709,-0.0199
1710,0.0598
1711,0.1395
1712,0.2590
1713,0.3586
1714,0.2590
1715,0.1594
1716,0.0797
1717,-0.0797
1718,-0.1195
1719,-0.1793
1720,-0.2391
1721,-0.2391
1722,-0.2391
1723,-0.2590
1724,-0.2590
1725,-0.2191
1726,-0.2789
1727,-0.3387
1728,-0.1992
1729,-0.1992
1730,-0.1793
1731,-0.1195
1732,-0.1195
1733,-0.1395
1734,-0.1395
1735,-0.1395
1736,-0.0797
1737,-0.0598
1738,-0.0398
1739,-0.0199
1740,-0.0598
1741,-0.0598
1742,-0.1195
1743,-0.0598
1744,0.0000
1745,0.2988
1746,0.4980
1747,0.4383
1748,0.2988
1749,0.0996
1750,-0.1793
1751,-0.4184
1752,-0.6176
1753,-0.7172
1754,-0.6973
1755,-0.6973
1756,-0.5777
1757,-0.5578
1758,-0.4383
1759,-0.3984
1760,-0.2391
1761,-0.1793
1762,-0.1395
1763,-0.1195
1764,-0.0598
1765,-0.0797
1766,-0.0797
1767,-0.0797
1768,-0.0598
1769,-0.0598
1770,0.0996
1771,0.3984
1772,0.4582
1773,0.4582
1774,0.3188
1775,0.0797
1776,-0.0996
1777,-0.2789
1778,-0.3785
1779,-0.4383
1780,-0.5180
1781,-0.3586
1782,-0.2191
1783,-0.0398
1784,-0.0598
1785,-0.0598
1786,0.0000
1787,0.0797
1788,0.0598
1789,0.0199
1790,0.0398
1791,0.0797
1792,0.0598
1793,0.0598
1794,0.0797
1795,0.1793
1796,0.2988
1797,0.2191
1798,0.1594
1799,0.1594
1800,0.1195
1801,-0.0199
1802,-0.0598
1803,-0.1195
1804,-0.2590
1805,-0.2789
1806,-0.2191
1807,-0.1594
1808,-0.1195
1809,-0.1395
1810,-0.0797
1811,0.0398
1812,0.0398
1813,0.1395
1814,0.1395
1815,0.0797
1816,0.0996
1817,0.1195
1818,0.0996
1819,0.1195
1820,0.1594
1821,0.1793
1822,0.1395
1823,0.0996
1824,0.1195
1825,0.0797
1826,0.0598
1827,0.0797
1828,0.0598
1829,0.1594
1830,0.2590
1831,0.4582
1832,0.3785
1833,0.2590
1834,0.1195
1835,-0.0996
1836,-0.2191
1837,-0.3984
1838,-0.5180
1839,-0.5777
1840,-0.4980
1841,-0.4184
1842,-0.3785
1843,-0.3586
1844,-0.3188
1845,-0.1395
1846,0.0598
1847,0.0797
1848,0.0598
1849,-0.0199
1850,0.0000
1851,-0.0398
1852,-0.0797
1853,-0.0598
1854,-0.0797
1855,-0.0199
1856,-0.0797
1857,-0.0797
1858,-0.0598
1859,-0.0398
1860,-0.0398
1861,0.0000
1862,-0.0398
1863,0.0199
1864,0.0199
1865,0.0199
1866,-0.0598
1867,-0.0996
1868,-0.1195
1869,-0.0996
1870,0.0199
1871,0.1395
1872,0.0996
1873,0.0797
1874,0.0996
1875,0.0000
1876,-0.0996
1877,-0.1594
1878,-0.1594
1879,-0.1594
1880,-0.1395
1881,-0.1195
1882,-0.0598
1883,-0.0199
1884,-0.0598
1885,-0.0398
1886,0.0000
1887,-0.0398
1888,0.0199
1889,0.0398
1890,0.0598
1891,0.0996
1892,0.0398
1893,0.1594
1894,0.1992
1895,0.3188
1896,0.3984
1897,0.3586
1898,0.3387
1899,0.3188
1900,0.2988
1901,0.1793
1902,0.0598
1903,-0.0598
1904,-0.1594
1905,-0.2590
1906,-0.4383
1907,-0.5180
1908,-0.5379
1909,-0.5180
1910,-0.4980
1911,-0.3984
1912,-0.1992
1913,-0.0797
1914,-0.0398
1915,-0.0598
1916,-0.0797
1917,-0.1793
1918,-0.1992
1919,-0.1992
1920,-0.1992
1921,-0.2191
1922,-0.2391
1923,-0.2191
1924,-0.2391
1925,-0.2590
1926,-0.1992
1927,-0.1992
1928,-0.0398
1929,0.1793
1930,0.2191
1931,0.2590
1932,0.2988
1933,0.3785
1934,0.1793
1935,0.1992
1936,0.1594
1937,0.0996
1938,0.1195
1939,0.0000
1940,-0.2191
1941,-0.1594
1942,-0.0598
1943,0.1594
1944,0.0797
1945,0.0199
1946,-0.0996
1947,-0.2590
1948,-0.3785
1949,-0.4980
1950,-0.5777
1951,-0.5180
1952,-0.4184
1953,-0.2590
1954,-0.2191
1955,-0.0398
1956,0.0199
1957,0.0996
1958,0.1793
1959,0.1594
1960,0.1992
1961,0.3586
1962,0.3586
1963,0.3188
1964,0.2590
1965,0.1992
1966,0.0598
1967,-0.0199
1968,-0.0598
1969,-0.1195
1970,-0.1793
1971,-0.0199
1972,0.1195
1973,0.2191
1974,0.1793
1975,0.1793
1976,0.0598
1977,0.0398
1978,-0.0398
1979,-0.0996
1980,-0.0598
1981,-0.0598
1982,0.0000
1983,0.1395
1984,0.1793
1985,0.1793
1986,0.1395
1987,-0.0598
1988,-0.1395
1989,-0.3188
1990,-0.2789
1991,-0.3387
1992,-0.2789
1993,-0.2590
1994,-0.0797
1995,0.0000
1996,0.1195
1997,0.1992
1998,0.4383
1999,0.5379
2000,0.4980
2001,0.4184
2002,0.3586
2003,0.3785
2004,0.3586
2005,0.3387
2006,0.1793
2007,0.0398
2008,0.2191
2009,0.3387
2010,0.2590
2011,0.2789
2012,0.2191
2013,0.0996
2014,-0.1793
2015,-0.3586
2016,-0.3785
2017,-0.2988
2018,-0.1793
2019,-0.0598
2020,-0.1594
2021,-0.0996
2022,-0.1195
2023,-0.0797
2024,-0.0398
2025,0.0398
2026,0.0199
2027,0.0797
2028,0.1195
2029,0.0598
2030,0.0797
2031,0.0000
2032,0.0996
2033,0.2590
2034,0.2191
2035,0.1395
2036,0.1395
2037,0.1395
2038,0.0996
2039,-0.0398
2040,-0.0996
2041,-0.1195
2042,-0.0199
2043,0.0199
2044,0.0199
2045,0.0598
2046,0.0398
2047,-0.0797
2048,-0.1793
2049,-0.0797
2050,0.0000
2051,-0.0199
2052,-0.0598
2053,-0.1395
2054,-0.2590
2055,-0.2789
2056,-0.1195
2057,-0.0398
2058,0.0598
2059,0.2789
2060,0.3984
2061,0.8965
2062,0.9762
2063,0.7770
2064,0.5379
2065,0.2988
2066,-0.0996
2067,-0.3984
2068,-0.6375
2069,-0.7371
2070,-0.6176
2071,-0.4781
2072,-0.1793
2073,0.1793
2074,0.3785
2075,0.5777
2076,0.5977
2077,0.4980
2078,0.3188
2079,0.0398
2080,-0.3188
2081,-0.5379
2082,-0.5977
2083,-0.4383
2084,-0.4383
2085,-0.2590
2086,0.2391
2087,0.6973
2088,0.7770
2089,0.5977
2090,0.3387
2091,0.1395
2092,-0.1594
2093,-0.4383
2094,-0.5977
2095,-0.7172
2096,-0.7172
2097,-0.6176
2098,-0.5379
2099,-0.4582
2100,-0.3586
2101,-0.1195
2102,0.1195
2103,0.2988
2104,0.4582
2105,0.5578
2106,0.6574
2107,0.7172
2108,0.6773
2109,0.4980
2110,0.2391
2111,0.1992
2112,0.1594
2113,0.0996
2114,-0.0199
2115,-0.2191
2116,-0.2988
2117,-0.3387
2118,-0.2590
2119,-0.2191
2120,-0.2988
2121,0.0000
2122,0.5777
2123,0.8566
2124,0.7371
2125,0.6973
2126,0.4582
2127,0.0398
2128,-0.4184
2129,-0.6973
2130,-0.8766
2131,-1.0957
2132,-1.0758
2133,-0.9762
2134,-0.8766
2135,-0.7969
2136,-0.6176
2137,-0.4781
2138,-0.3586
2139,-0.2789
2140,-0.2391
2141,-0.1195
2142,-0.0398
2143,0.0000
2144,0.0398
2145,0.1195
2146,0.0398
2147,0.0199
2148,-0.0199
2149,-0.0199
2150,0.0398
2151,0.1195
2152,0.1793
2153,0.1195
2154,0.1195
2155,0.0797
2156,0.0199
2157,0.0000
2158,0.0000
2159,0.0797
2160,0.1594
2161,0.3188
2162,0.5777
2163,1.3148
2164,1.6137
2165,1.6336
2166,1.4941
2167,1.1555
2168,0.7371
2169,0.3785
2170,0.0000
2171,-0.3188
2172,-0.7570
2173,-0.9762
2174,-1.1555
2175,-1.2551
2176,-1.2352
2177,-1.1355
2178,-0.9164
2179,-0.6973
2180,-0.4781
2181,-0.2191
2182,-0.1395
2183,0.0797
2184,0.1395
2185,0.2391
2186,0.3188
2187,0.2988
2188,0.2391
2189,0.2789
2190,0.3188
2191,0.2988
2192,0.3387
2193,0.3785
2194,0.3785
2195,0.3188
2196,0.3387
2197,0.2789
2198,0.3586
2199,0.3586
2200,0.3586
2201,0.3387
2202,0.2590
2203,0.2590
2204,0.2590
2205,0.3785
2206,0.3387
2207,0.2789
2208,0.2590
2209,0.4980
2210,0.5180
2211,0.3984
2212,0.2590
2213,0.2789
2214,0.2988
2215,0.2988
2216,0.3188
2217,0.3387
2218,0.2391
2219,0.1195
2220,-0.0598
2221,-0.3387
2222,-0.5977
2223,-0.7371
2224,-0.7172
2225,-0.5977
2226,-0.4980
2227,-0.3188
2228,-0.2191
2229,-0.2590
2230,-0.0996
2231,-0.1395
2232,-0.1195
2233,-0.0398
2234,0.0398
2235,0.1594
2236,0.1395
2237,0.1793
2238,0.0797
2239,0.0199
2240,0.0398
2241,0.1992
2242,0.3188
2243,0.4582
2244,0.5578
2245,0.4781
2246,0.3188
2247,0.2590
2248,0.5379
2249,0.8965
2250,0.8766
2251,0.6176
2252,0.3785
2253,0.1195
2254,-0.1395
2255,-0.3586
2256,-0.3785
2257,-0.4582
2258,-0.5578
2259,-0.6574
2260,-0.7770
2261,-0.9563
2262,-1.1156
2263,-1.0758
2264,-0.9563
2265,-0.7371
2266,-0.5777
2267,-0.4781
2268,-0.2789
2269,-0.1594
2270,-0.1793
2271,0.0598
2272,0.1992
2273,0.3586
2274,0.3785
2275,0.5777
2276,1.1355
2277,1.3547
2278,1.2750
2279,0.9762
2280,0.6574
2281,0.3387
2282,0.0000
2283,-0.1594
2284,-0.1195
2285,0.1395
2286,0.3387
2287,0.2590
2288,0.0398
2289,-0.0398
2290,0.0199
2291,-0.0996
2292,-0.3188
2293,-0.7172
2294,-0.9961
2295,-1.1555
2296,-1.1156
2297,-1.0758
2298,-0.8965
2299,-0.6973
2300,-0.5180
2301,-0.3586
2302,-0.2191
2303,-0.0199
2304,0.3984
2305,0.7570
2306,1.1953
2307,1.5938
2308,1.5340
2309,1.3547
2310,0.9762
2311,0.5777
2312,0.3586
2313,0.0996
2314,-0.0598
2315,-0.1395
2316,-0.1195
2317,-0.1594
2318,-0.0996
2319,0.0398
2320,0.1793
2321,0.2191
2322,0.0996
2323,0.0199
2324,-0.1992
2325,-0.3785
2326,-0.5977
2327,-0.9363
2328,-1.0957
2329,-1.0758
2330,-1.0758
2331,-1.0359
2332,-0.7770
2333,-0.6176
2334,-0.5180
2335,-0.2988
2336,-0.0996
2337,0.1195
2338,0.2988
2339,0.4184
2340,0.4383
2341,0.3785
2342,0.1793
2343,0.0996
2344,0.1594
2345,0.1793
2346,0.2789
2347,0.5578
2348,0.6973
2349,0.7570
2350,0.7570
2351,0.8566
2352,1.0160
2353,1.1355
2354,1.0957
2355,0.9563
2356,0.7570
2357,0.8566
2358,0.8965
2359,0.5777
2360,0.4184
2361,-0.0398
2362,-0.4980
2363,-0.8566
2364,-1.1953
2365,-1.1953
2366,-0.9762
2367,-0.9563
2368,-0.8566
2369,-0.7172
2370,-0.3387
2371,-0.1195
2372,-0.0996
2373,0.0996
2374,0.2789
2375,0.3387
2376,0.3387
2377,0.2191
2378,0.2391
2379,0.4184
2380,0.6375
2381,0.3586
2382,-0.0598
2383,-0.3984
2384,-0.5180
2385,-0.6176
2386,-0.7770
2387,-0.8566
2388,-0.8168
2389,-0.6973
2390,-0.4781
2391,-0.2590
2392,-0.0598
2393,0.2191
2394,0.3188
2395,0.3387
2396,0.1992
2397,0.1395
2398,0.1793
2399,0.2391
2400,0.1195
2401,0.1992
2402,0.0996
2403,0.0797
2404,-0.0598
2405,-0.1195
2406,-0.0598
2407,0.0199
2408,0.0996
2409,0.2391
2410,0.3586
2411,0.3387
2412,0.3387
2413,0.3387
2414,0.3188
2415,0.2590
2416,0.1793
2417,0.2391
2418,0.1793
2419,0.1793
2420,0.2590
2421,0.3387
2422,0.4781
2423,0.4781
2424,0.4582
2425,0.3586
2426,0.2391
2427,0.1793
2428,0.1793
2429,0.2789
2430,0.5379
2431,1.0957
2432,1.4543
2433,1.5340
2434,1.3945
2435,1.0758
2436,0.7770
2437,0.3785
2438,-0.0996
2439,-0.5578
2440,-0.7969
2441,-1.0359
2442,-1.0957
2443,-1.0957
2444,-1.0160
2445,-0.7172
2446,-0.2789
2447,0.0199
2448,0.1594
2449,0.3188
2450,0.5180
2451,0.7969
2452,1.3547
2453,1.9523
2454,2.0918
2455,1.8926
2456,1.4742
2457,1.0160
2458,0.8168
2459,0.6773
2460,0.3586
2461,-0.0199
2462,-0.2988
2463,-0.4980
2464,-0.6773
2465,-0.7770
2466,-0.7969
2467,-0.3387
2468,-0.2191
2469,-0.2789
2470,-0.4781
2471,-0.7172
2472,-0.9164
2473,-0.9563
2474,-1.0359
2475,-1.0160
2476,-0.8965
2477,-0.7770
2478,-0.6176
2479,-0.4383
2480,-0.4582
2481,-0.4582
2482,-0.4781
2483,-0.3785
2484,-0.1594
2485,0.2590
2486,0.7969
2487,1.1355
2488,1.4344
2489,1.3148
2490,0.9762
2491,0.6375
2492,0.1594
2493,-0.3387
2494,-0.7371
2495,-0.9563
2496,-0.8566
2497,-0.9762
2498,-1.0957
2499,-0.9961
2500,-0.6574
2501,-0.2590
2502,-0.0996
2503,0.0000
2504,-0.0797
2505,-0.1594
2506,-0.2590
2507,-0.5977
2508,-0.9961
2509,-0.9164
2510,-0.6375
2511,-0.1793
2512,0.0996
2513,0.3785
2514,0.3984
2515,0.1793
2516,-0.0996
2517,-0.4184
2518,-0.7172
2519,-0.7570
2520,-0.5977
2521,-0.1992
2522,0.1594
2523,0.4383
2524,0.5180
2525,0.7172
2526,0.7371
2527,0.7172
2528,0.4383
2529,-0.0398
2530,-0.3785
2531,-0.8566
2532,-1.4543
2533,-1.7133
2534,-1.7930
2535,-1.6336
2536,-1.3945
2537,-1.1555
2538,-0.7172
2539,-0.2789
2540,0.1992
2541,0.4383
2542,0.4781
2543,0.2789
2544,0.0199
2545,-0.0797
2546,-0.0598
2547,-0.0797
2548,0.0199
2549,0.2191
2550,0.3586
2551,0.6973
2552,0.7969
2553,0.8168
2554,1.0957
2555,1.3348
2556,1.1953
2557,0.9563
2558,0.6375
2559,0.3785
2560,0.0598
2561,-0.3586
2562,-0.7770
2563,-1.0359
2564,-0.9961
2565,-0.7969
2566,-0.4781
2567,-0.2391
2568,0.0199
2569,0.1594
2570,0.2988
2571,0.3984
2572,0.3785
2573,0.3586
2574,0.3785
2575,0.3188
2576,0.2590
2577,0.1195
2578,0.0199
2579,-0.0598
2580,0.0000
2581,0.1395
2582,0.0797
2583,0.0996
2584,0.1992
2585,0.2988
2586,0.4980
2587,0.6973
2588,0.7770
2589,0.7969
2590,0.7172
2591,0.5379
2592,0.2590
2593,0.0598
2594,-0.1992
2595,-0.3387
2596,-0.3586
2597,-0.3984
2598,-0.3984
2599,-0.2191
2600,-0.1594
2601,-0.1594
2602,-0.1395
2603,-0.1793
2604,-0.2391
2605,-0.3188
2606,-0.3387
2607,-0.3586
2608,-0.2789
2609,0.0598
2610,0.2590
2611,0.5180
2612,0.5180
2613,0.4781
2614,0.2191
2615,-0.0598
2616,-0.3984
2617,-0.8367
2618,-1.2152
2619,-1.5738
2620,-1.8328
2621,-1.9723
2622,-1.8328
2623,-1.5738
2624,-1.4742
2625,-1.5340
2626,-1.6336
2627,-1.6535
2628,-1.4941
2629,-1.2152
2630,-1.0359
2631,-1.0359
2632,-0.9164
2633,-1.0758
2634,-1.2949
2635,-1.5141
2636,-1.4344
2637,-1.3348
2638,-1.0359
2639,-1.0160
2640,-0.8766
2641,-0.7570
2642,-0.7570
2643,-0.6973
2644,-0.6375
2645,-0.6375
2646,-0.7172
2647,-0.8168
2648,-0.9164
2649,-1.0359
2650,-1.1953
2651,-1.1754
2652,-1.1953
2653,-1.1754
2654,-1.0758
2655,-1.0359
2656,-1.0957
2657,-0.9563
2658,-0.7570
2659,-0.5977
2660,-0.3984
2661,-0.3387
2662,-0.2590
2663,-0.1395
2664,-0.0199
2665,0.0598
2666,0.1395
2667,0.2988
2668,0.5180
2669,0.6574
2670,0.7570
2671,0.8566
2672,0.7969
2673,0.6973
2674,0.6176
2675,0.5379
2676,0.5977
2677,0.7371
2678,0.5777
2679,0.2988
2680,0.0797
2681,0.0797
2682,0.1793
2683,0.3188
2684,0.3984
2685,0.3785
2686,0.4184
2687,0.3785
2688,0.3188
2689,0.2789
2690,0.0797
2691,0.0996
2692,0.2191
2693,0.3188
2694,0.2988
2695,0.4383
2696,0.4980
2697,0.6574
2698,0.9363
2699,1.2352
2700,1.5738
2701,1.8129
2702,1.8926
2703,1.9523
2704,1.6137
2705,1.1555
2706,0.7969
2707,0.4582
2708,0.3586
2709,0.2391
2710,0.1992
2711,0.2391
2712,0.3984
2713,0.4383
2714,0.3984
2715,0.1793
2716,-0.0996
2717,-0.4582
2718,-0.5180
2719,-0.4383
2720,-0.4582
2721,-0.2988
2722,-0.1395
2723,0.0398
2724,0.0598
2725,0.3387
2726,0.4184
2727,0.3984
2728,0.2789
2729,0.1992
2730,0.1594
2731,0.1992
2732,0.2590
2733,0.3188
2734,0.4980
2735,0.5977
2736,0.6375
2737,0.7770
2738,0.7770
2739,0.7770
2740,0.7770
2741,0.7969
2742,0.7969
2743,0.7770
2744,0.6773
2745,0.5578
2746,0.5977
2747,0.5777
2748,0.4184
2749,0.1594
2750,0.0996
2751,-0.0598
2752,-0.2988
2753,-0.5379
2754,-0.8965
2755,-0.7570
2756,-0.2789
2757,0.1395
2758,0.4781
2759,0.6176
2760,0.7172
2761,0.7570
2762,0.7969
2763,0.8566
2764,0.7770
2765,0.6973
2766,0.7172
2767,0.5977
2768,0.4184
2769,0.1992
2770,0.1395
2771,0.1594
2772,0.2391
2773,0.4781
2774,0.6176
2775,0.6574
2776,0.6973
2777,0.7770
2778,0.7570
2779,0.5777
2780,0.2391
2781,-0.1594
2782,-0.4980
2783,-0.8766
2784,-1.0758
2785,-0.9563
2786,-0.7371
2787,-0.4184
2788,-0.2191
2789,-0.1395
2790,-0.1594
2791,-0.1594
2792,-0.1594
2793,-0.1594
2794,-0.2590
2795,-0.3785
2796,-0.4383
2797,-0.3984
2798,-0.4383
2799,-0.4980
2800,-0.5578
2801,-0.6176
2802,-0.6973
2803,-0.6375
2804,-0.6375
2805,-0.5777
2806,-0.4781
2807,-0.4184
2808,-0.3984
2809,-0.3785
2810,-0.3785
2811,-0.2391
2812,-0.1793
2813,-0.1594
2814,-0.0598
2815,-0.0199
2816,0.0996
2817,0.2391
2818,0.2988
2819,0.1793
2820,0.0598
2821,-0.1395
2822,-0.3188
2823,-0.4383
2824,-0.6773
2825,-0.6973
2826,-0.5777
2827,-0.2590
2828,-0.1195
2829,0.0000
2830,0.0598
2831,0.1594
2832,0.3188
2833,0.5777
2834,0.7570
2835,0.7969
2836,0.7371
2837,0.4980
2838,0.1594
2839,-0.0996
2840,-0.3188
2841,-0.5180
2842,-0.4980
2843,-0.1195
2844,0.2191
2845,0.3586
2846,0.2988
2847,0.0598
2848,-0.1395
2849,-0.2789
2850,-0.2191
2851,-0.2789
2852,-0.1992
2853,-0.0996
2854,-0.0797
2855,0.0000
2856,-0.0797
2857,-0.1195
2858,-0.2391
2859,-0.2191
2860,-0.3387
2861,-0.4582
2862,-0.4582
2863,-0.4781
2864,-0.4582
2865,-0.6574
2866,-0.8965
2867,-1.0559
2868,-0.8965
2869,-0.7770
2870,-0.6375
2871,-0.4184
2872,-0.1793
2873,0.0398
2874,0.2191
2875,0.3984
2876,0.1793
2877,-0.4184
2878,-1.1555
2879,-1.9523
2880,-2.5500
2881,-2.6695
2882,-2.4703
2883,-2.0520
2884,-1.5340
2885,-1.0559
2886,-0.7172
2887,-0.6773
2888,-0.6773
2889,-0.7172
2890,-0.8965
2891,-1.0559
2892,-1.2551
2893,-1.2551
2894,-0.9164
2895,-0.7172
2896,-0.6574
2897,-0.4582
2898,-0.2590
2899,-0.1992
2900,-0.1793
2901,-0.2590
2902,-0.4184
2903,-0.4781
2904,-0.4781
2905,-0.3387
2906,-0.0598
2907,0.2391
2908,0.4980
2909,0.7371
2910,0.7770
2911,0.6773
2912,0.4582
2913,0.1992
2914,-0.2191
2915,-0.4383
2916,-0.3387
2917,-0.3785
2918,-0.1195
2919,0.2191
2920,0.4781
2921,0.8367
2922,1.1156
2923,1.3348
2924,1.5340
2925,1.6137
2926,1.7731
2927,1.8328
2928,2.1316
2929,2.2711
2930,2.1914
2931,1.9922
2932,1.8328
2933,1.5340
2934,1.3348
2935,1.3348
2936,1.5141
2937,1.8527
2938,1.9125
2939,2.0121
2940,2.1715
2941,2.2910
2942,2.2910
2943,2.1914
2944,2.0121
2945,1.8727
2946,1.6336
2947,1.2949
2948,1.0559
2949,0.8566
2950,0.4980
2951,0.5180
2952,0.4980
2953,0.4582
2954,0.6375
2955,0.8168
2956,0.9164
2957,0.8566
2958,0.7570
2959,0.5977
2960,0.7770
2961,0.8566
2962,0.8168
2963,0.8766
2964,0.9164
2965,0.8168
2966,0.7172
2967,0.4781
2968,0.4184
2969,0.3387
2970,0.2391
2971,0.1992
2972,0.2391
2973,0.3387
2974,0.4383
2975,0.4383
2976,0.3785
2977,0.1594
2978,0.1195
2979,0.1793
2980,0.1793
2981,0.1793
2982,0.0996
2983,0.0598
2984,0.1395
2985,0.2988
2986,0.4582
2987,0.5180
2988,0.6574
2989,0.6375
2990,0.6375
2991,0.5777
2992,0.4184
2993,0.2789
2994,0.1992
2995,0.1793
2996,0.2391
2997,0.1195
2998,0.2191
2999,0.4582
3000,0.5777
3001,0.7570
3002,0.8168
3003,0.9164
3004,0.8766
3005,0.5977
3006,0.2391
3007,-0.4781
3008,-0.9762
3009,-1.1156
3010,-1.2152
3011,-1.2750
3012,-1.1156
3013,-0.7969
3014,-0.6176
3015,-0.5578
3016,-0.6375
3017,-0.6176
3018,-0.4781
3019,-0.5180
3020,-0.5578
3021,-0.7172
3022,-0.7969
3023,-0.8367
3024,-1.1156
3025,-1.5141
3026,-1.7133
3027,-1.7332
3028,-1.8129
3029,-1.8727
3030,-1.7133
3031,-1.5141
3032,-1.4145
3033,-1.2750
3034,-1.1555
3035,-1.1355
3036,-1.0957
3037,-1.0359
3038,-1.0160
3039,-0.9563
3040,-0.9363
3041,-0.9563
3042,-0.8766
3043,-0.8168
3044,-0.6973
3045,-0.4582
3046,-0.2789
3047,-0.3785
3048,-0.4383
3049,-0.5180
3050,-0.5379
3051,-0.6176
3052,-0.6176
3053,-0.5578
3054,-0.3785
3055,-0.1395
3056,-0.0398
3057,-0.1992
3058,-0.1793
3059,-0.1793
3060,-0.2988
3061,-0.3984
3062,-0.2789
3063,0.1195
3064,0.3984
3065,0.5180
3066,0.3785
3067,0.1195
3068,-0.0797
3069,-0.1594
3070,-0.0199
3071,0.2988
3072,0.4980
3073,0.5977
3074,0.5578
3075,0.6973
3076,0.6973
3077,0.7172
3078,0.7969
3079,0.7969
3080,0.7570
3081,0.5777
3082,0.2789
3083,-0.0398
3084,-0.4980
3085,-0.9762
3086,-1.0359
3087,-0.8965
3088,-0.6574
3089,-0.2789
3090,-0.0797
3091,0.0996
3092,0.1594
3093,0.3387
3094,0.4383
3095,0.5180
3096,0.5578
3097,0.5977
3098,0.6176
3099,0.5379
3100,0.4184
3101,0.0996
3102,-0.1992
3103,-0.4184
3104,-0.7172
3105,-0.7770
3106,-0.6176
3107,-0.2988
3108,-0.1395
3109,-0.0996
3110,-0.0598
3111,0.0000
3112,0.0000
3113,-0.0199
3114,-0.1594
3115,-0.2988
3116,-0.4781
3117,-0.7371
3118,-0.8965
3119,-0.7969
3120,-0.4184
3121,0.0398
3122,0.2391
3123,0.2789
3124,0.2391
3125,0.1992
3126,0.0199
3127,0.0398
3128,0.0398
3129,0.0398
3130,0.0398
3131,-0.0199
3132,-0.0199
3133,-0.0996
3134,-0.1395
3135,-0.0996
3136,-0.0598
3137,0.0000
3138,0.0598
3139,0.0598
3140,0.0598
3141,-0.0199
3142,-0.0199
3143,0.0598
3144,0.2391
3145,0.2789
3146,0.1793
3147,0.0398
3148,0.0199
3149,0.0000
3150,0.0996
3151,0.0598
3152,0.1395
3153,0.3586
3154,0.6176
3155,0.5977
3156,0.4383
3157,0.1793
3158,-0.0996
3159,-0.3586
3160,-0.6176
3161,-0.8965
3162,-0.8965
3163,-0.7371
3164,-0.3188
3165,-0.1594
3166,-0.0398
3167,0.0797
3168,0.1793
3169,0.3188
3170,0.3785
3171,0.4582
3172,0.4383
3173,0.3188
3174,0.1793
3175,0.0398
3176,-0.2590
3177,-0.4980
3178,-0.6973
3179,-0.6375
3180,-0.3188
3181,0.0398
3182,0.1395
3183,0.1395
3184,0.2391
3185,0.2789
3186,0.2988
3187,0.1395
3188,0.0996
3189,0.0598
3190,-0.0199
3191,-0.2590
3192,-0.4980
3193,-0.3984
3194,-0.2191
3195,-0.0797
3196,0.0199
3197,0.0797
3198,0.1594
3199,0.2191
3200,0.0996
3201,0.0797
3202,-0.1395
3203,-0.3188
3204,-0.4980
3205,-0.6375
3206,-0.5977
3207,-0.3984
3208,-0.1195
3209,0.0000
3210,0.1594
3211,0.2391
3212,0.3984
3213,0.4582
3214,0.5379
3215,0.5977
3216,0.4781
3217,0.3387
3218,0.1594
3219,-0.0598
3220,-0.2391
3221,-0.3387
3222,-0.3387
3223,-0.0398
3224,0.0398
3225,0.1793
3226,0.3188
3227,0.2789
3228,0.3188
3229,0.4184
3230,0.4184
3231,0.2590
3232,0.1594
3233,0.1594
3234,-0.0398
3235,-0.1594
3236,-0.2191
3237,0.0199
3238,0.3387
3239,0.4781
3240,0.4184
3241,0.1594
3242,-0.1992
3243,-0.4184
3244,-0.4980
3245,-0.6973
3246,-0.4980
3247,-0.2789
3248,-0.0598
3249,0.0398
3250,-0.0398
3251,-0.1395
3252,-0.0398
3253,0.0000
3254,0.0598
3255,0.2191
3256,0.1793
3257,0.0398
3258,-0.2590
3259,-0.4582
3260,-0.4184
3261,-0.3586
3262,-0.3785
3263,-0.2988
3264,-0.2191
3265,0.0000
3266,0.2391
3267,0.2988
3268,0.3586
3269,0.2789
3270,0.3586
3271,0.4582
3272,0.4383
3273,0.4184
3274,0.2988
3275,0.1395
3276,-0.0398
3277,-0.1395
3278,-0.1793
3279,-0.3188
3280,-0.3984
3281,-0.5578
3282,-0.7969
3283,-0.9164
3284,-0.7969
3285,-0.4781
3286,-0.2391
3287,-0.1992
3288,-0.0797
3289,-0.0797
3290,-0.0199
3291,0.0598
3292,0.0797
3293,0.0797
3294,0.1395
3295,0.2191
3296,0.2988
3297,0.3188
3298,0.3785
3299,0.3785
3300,0.2789
3301,0.1992
3302,0.0598
3303,-0.0996
3304,-0.0598
3305,0.0598
3306,0.1793
3307,0.2191
3308,0.2391
3309,0.1793
3310,0.1195
3311,0.1992
3312,0.2391
3313,0.2191
3314,0.1594
3315,0.0996
3316,-0.0398
3317,-0.2391
3318,-0.2789
3319,-0.3984
3320,-0.3586
3321,-0.1793
3322,0.0797
3323,0.2191
3324,0.2789
3325,0.3785
3326,0.3387
3327,0.2590
3328,0.2191
3329,0.0797
3330,-0.1195
3331,-0.2988
3332,-0.3387
3333,-0.2590
3334,-0.0398
3335,0.0398
3336,-0.1395
3337,-0.2988
3338,-0.3785
3339,-0.2391
3340,-0.1594
3341,-0.0996
3342,0.0199
3343,0.2391
3344,0.3188
3345,0.2789
3346,0.1992
3347,0.0398
3348,0.0000
3349,0.1195
3350,0.2988
3351,0.1992
3352,-0.0598
3353,-0.5578
3354,-1.0160
3355,-0.7969
3356,-0.7172
3357,-0.4980
3358,-0.4980
3359,-0.4980
3360,-0.5180
3361,-0.4582
3362,-0.2590
3363,0.0000
3364,0.1793
3365,0.2789
3366,0.3188
3367,0.3984
3368,0.4383
3369,0.3586
3370,0.2191
3371,0.1594
3372,0.1594
3373,0.1594
3374,0.1195
3375,0.2391
3376,0.2590
3377,0.3785
3378,0.4383
3379,0.3785
3380,0.1594
3381,-0.1395
3382,-0.3586
3383,-0.6375
3384,-0.5777
3385,-0.4184
3386,-0.2191
3387,-0.0199
3388,0.0996
3389,0.1195
3390,0.0598
3391,0.0598
3392,0.0000
3393,-0.0199
3394,-0.1395
3395,-0.4184
3396,-0.6574
3397,-0.7969
3398,-0.8168
3399,-0.7969
3400,-0.6973
3401,-0.6176
3402,-0.4582
3403,-0.3586
3404,-0.2590
3405,-0.1195
3406,-0.1395
3407,-0.1594
3408,-0.1594
3409,-0.1793
3410,-0.1992
3411,-0.2391
3412,-0.3586
3413,-0.2789
3414,-0.1195
3415,-0.0398
3416,-0.0398
3417,-0.1195
3418,-0.1793
3419,-0.1395
3420,-0.0797
3421,-0.0797
3422,-0.1992
3423,-0.2391
3424,-0.3387
3425,-0.3984
3426,-0.2789
3427,-0.2988
3428,-0.4383
3429,-0.5379
3430,-0.6574
3431,-0.6574
3432,-0.4383
3433,-0.4184
3434,-0.4781
3435,-0.3785
3436,-0.1594
3437,-0.0598
3438,-0.0199
3439,0.0598
3440,0.0797
3441,0.1195
3442,0.1793
3443,0.0996
3444,0.0598
3445,0.1992
3446,0.3785
3447,0.4383
3448,0.4383
3449,0.4781
3450,0.4781
3451,0.3785
3452,0.3387
3453,0.4184
3454,0.4781
3455,0.4980
3456,0.5180
3457,0.6574
3458,0.7172
3459,0.7371
3460,0.8168
3461,0.6574
3462,0.3586
3463,-0.0797
3464,-0.6773
3465,-1.1953
3466,-1.4145
3467,-1.0359
3468,-0.5578
3469,-0.0797
3470,0.1195
3471,0.2391
3472,0.2988
3473,0.3188
3474,0.3785
3475,0.2191
3476,0.2191
3477,0.1195
3478,0.0797
3479,0.0199
3480,-0.0199
3481,0.0797
3482,0.2191
3483,0.2391
3484,0.2590
3485,0.1992
3486,0.1594
3487,0.0797
3488,0.0000
3489,0.0398
3490,0.1395
3491,0.2988
3492,0.3785
3493,0.4781
3494,0.3785
3495,0.3387
3496,0.2590
3497,-0.0199
3498,-0.0398
3499,-0.1992
3500,-0.2789
3501,-0.4383
3502,-0.4383
3503,-0.2988
3504,-0.3188
3505,-0.1594
3506,-0.1594
3507,-0.2391
3508,-0.3785
3509,-0.5180
3510,-0.5578
3511,-0.5180
3512,-0.4184
3513,-0.2391
3514,-0.0996
3515,0.0000
3516,0.0199
3517,-0.0199
3518,-0.0598
3519,-0.0398
3520,-0.0996
3521,0.0000
3522,0.0797
3523,0.2391
3524,0.2590
3525,0.1395
3526,-0.0996
3527,-0.2391
3528,-0.3188
3529,-0.5180
3530,-0.2191
3531,0.0598
3532,0.2988
3533,0.3984
3534,0.4582
3535,0.3984
3536,0.2988
3537,0.0797
3538,-0.1195
3539,-0.2789
3540,-0.2590
3541,-0.3785
3542,-0.5180
3543,-0.3188
3544,-0.1594
3545,0.0797
3546,0.1195
3547,0.1195
3548,0.1594
3549,0.0797
3550,0.0000
3551,-0.0199
3552,-0.0598
3553,0.0000
3554,0.1195
3555,0.1793
3556,0.1594
3557,0.1195
3558,0.3387
3559,0.3188
3560,0.3586
3561,0.2789
3562,0.2789
3563,0.3387
3564,0.3586
3565,0.2988
3566,0.3785
3567,0.3984
3568,0.3188
3569,0.2590
3570,0.1395
3571,-0.0199
3572,-0.3188
3573,-0.4980
3574,-0.6973
3575,-0.4980
3576,-0.1992
3577,0.0000
3578,0.3188
3579,0.4781
3580,0.6176
3581,0.6773
3582,0.5379
3583,0.3785
3584,0.2590
3585,0.0996
3586,-0.1793
3587,-0.2191
3588,-0.0797
3589,-0.0996
3590,-0.1793
3591,-0.1793
3592,-0.0996
3593,0.0797
3594,0.1195
3595,0.3188
3596,0.5180
3597,0.5578
3598,0.5379
3599,0.4980
3600,0.3785
3601,0.1793
3602,0.0000
3603,-0.0797
3604,-0.1594
3605,-0.2191
3606,-0.1395
3607,-0.1395
3608,0.0398
3609,0.0996
3610,0.0598
3611,0.2590
3612,0.4383
3613,0.4184
3614,0.4383
3615,0.4383
3616,0.2391
3617,0.0199
3618,-0.0996
3619,-0.1395
3620,0.0000
3621,-0.0598
3622,-0.1793
3623,0.0199
3624,0.0598
3625,0.0000
3626,0.0000
3627,-0.0199
3628,0.1195
3629,0.2988
3630,0.3785
3631,0.4781
3632,0.5977
3633,0.7371
3634,0.7570
3635,0.6773
3636,0.5180
3637,0.3188
3638,0.0398
3639,-0.2590
3640,-0.4383
3641,-0.5777
3642,-0.8367
3643,-0.7969
3644,-0.7371
3645,-0.6574
3646,-0.4582
3647,-0.2590
3648,-0.2391
3649,-0.0996
3650,0.0000
3651,0.1395
3652,0.2590
3653,0.3984
3654,0.4781
3655,0.3984
3656,0.2191
3657,0.0199
3658,-0.1793
3659,-0.3785
3660,-0.3785
3661,-0.2590
3662,-0.0199
3663,0.2391
3664,0.2988
3665,0.3984
3666,0.5379
3667,0.5578
3668,0.5977
3669,0.5180
3670,0.3984
3671,0.0398
3672,-0.3984
3673,-0.8965
3674,-1.0957
3675,-1.0758
3676,-0.7969
3677,-0.2988
3678,0.0199
3679,0.2988
3680,0.4383
3681,0.6176
3682,0.6773
3683,0.6176
3684,0.4980
3685,0.2590
3686,-0.1594
3687,-0.6176
3688,-0.6973
3689,-0.7371
3690,-0.7570
3691,-0.6574
3692,-0.3785
3693,-0.0996
3694,0.2191
3695,0.4184
3696,0.5379
3697,0.6375
3698,0.6574
3699,0.4781
3700,0.2590
3701,-0.1395
3702,-0.4980
3703,-0.6176
3704,-0.6574
3705,-0.5977
3706,-0.4383
3707,-0.1195
3708,0.0996
3709,0.2191
3710,0.2590
3711,0.3387
3712,0.3984
3713,0.3188
3714,0.2789
3715,0.2191
3716,0.1992
3717,0.1594
3718,0.1395
3719,0.2391
3720,0.3387
3721,0.2789
3722,0.2391
3723,0.1195
3724,0.0199
3725,-0.0199
3726,-0.0797
3727,-0.2191
3728,-0.2590
3729,-0.1793
3730,-0.0797
3731,-0.1594
3732,-0.3387
3733,-0.4184
3734,-0.3984
3735,-0.2988
3736,-0.0996
3737,0.0000
3738,0.1594
3739,0.2191
3740,0.1395
3741,0.1793
3742,0.1793
3743,0.1594
3744,0.2391
3745,0.1594
3746,0.0199
3747,-0.1195
3748,-0.1395
3749,-0.2191
3750,-0.5180
3751,-0.4582
3752,-0.2191
3753,0.0398
3754,0.1793
3755,0.2391
3756,0.2191
3757,0.2191
3758,0.2590
3759,0.2988
3760,0.2988
3761,0.1793
3762,0.0000
3763,-0.1793
3764,-0.4582
3765,-0.6973
3766,-0.5777
3767,-0.4781
3768,-0.1395
3769,0.1195
3770,0.2191
3771,0.2391
3772,0.1395
3773,-0.0199
3774,-0.0398
3775,0.1395
3776,0.2191
3777,0.3188
3778,0.4582
3779,0.4582
3780,0.3188
3781,0.1793
3782,-0.2391
3783,-0.5777
3784,-0.5777
3785,-0.4980
3786,-0.4582
3787,-0.4184
3788,-0.3188
3789,-0.2391
3790,-0.1395
3791,-0.0598
3792,0.0398
3793,0.1992
3794,0.2590
3795,0.2789
3796,0.1395
3797,0.0996
3798,-0.0598
3799,-0.1594
3800,-0.1395
3801,-0.1793
3802,-0.1395
3803,-0.0398
3804,0.1195
3805,0.2191
3806,0.1992
3807,0.1395
3808,0.2191
3809,0.2191
3810,0.1195
3811,0.0000
3812,-0.2191
3813,-0.4582
3814,-0.5977
3815,-0.4980
3816,-0.2391
3817,-0.0797
3818,0.1992
3819,0.2789
3820,0.3387
3821,0.4184
3822,0.4383
3823,0.4184
3824,0.2988
3825,0.0996
3826,-0.2590
3827,-0.4582
3828,-0.5578
3829,-0.5578
3830,-0.4184
3831,-0.4383
3832,-0.3984
3833,-0.2391
3834,-0.0996
3835,0.0000
3836,-0.0199
3837,-0.0996
3838,-0.0598
3839,-0.0398
3840,0.0199
3841,0.0000
3842,-0.0996
3843,-0.2590
3844,-0.3984
3845,-0.4184
3846,-0.1594
3847,-0.0199
3848,0.0398
3849,0.1195
3850,0.1992
3851,0.2391
3852,0.2988
3853,0.2191
3854,0.1594
3855,0.0797
3856,0.0598
3857,0.0797
3858,0.1395
3859,0.1594
3860,0.1992
3861,0.2789
3862,0.2391
3863,0.1195
3864,-0.0598
3865,-0.0996
3866,-0.2590
3867,-0.3785
3868,-0.2789
3869,-0.3188
3870,-0.2191
3871,-0.0996
3872,-0.1594
3873,-0.2391
3874,-0.3188
3875,-0.3586
3876,-0.3785
3877,-0.4184
3878,-0.2590
3879,-0.0797
3880,0.0598
3881,0.1992
3882,0.2590
3883,0.3387
3884,0.3785
3885,0.2391
3886,0.1793
3887,-0.0199
3888,-0.2391
3889,-0.4781
3890,-0.5777
3891,-0.4184
3892,-0.1992
3893,0.0398
3894,0.1395
3895,0.1594
3896,0.1594
3897,0.2391
3898,0.0996
3899,-0.0996
3900,-0.1594
3901,-0.2391
3902,-0.2590
3903,-0.1793
3904,0.0000
3905,0.1992
3906,0.3188
3907,0.2590
3908,0.1793
3909,-0.0398
3910,-0.0797
3911,-0.1395
3912,-0.3785
3913,-0.4184
3914,-0.2191
3915,-0.0398
3916,-0.1395
3917,-0.1594
3918,-0.2590
3919,-0.5379
3920,-0.7570
3921,-0.8965
3922,-0.6574
3923,-0.6375
3924,-0.5180
3925,-0.2988
3926,-0.1395
3927,-0.0398
3928,-0.0797
3929,-0.0598
3930,0.0000
3931,-0.0199
3932,0.0398
3933,0.1594
3934,0.1195
3935,0.0797
3936,0.0598
3937,0.0996
3938,0.1195
3939,0.0598
3940,0.0598
3941,-0.0398
3942,-0.1992
3943,-0.3984
3944,-0.5777
3945,-0.5977
3946,-0.4383
3947,-0.1793
3948,0.0000
3949,0.0000
3950,0.0598
3951,0.0996
3952,0.0398
3953,-0.0199
3954,-0.1395
3955,-0.1992
3956,-0.1395
3957,-0.0797
3958,-0.0199
3959,0.0598
3960,0.1992
3961,0.2988
3962,0.4383
3963,0.6773
3964,0.7172
3965,0.6375
3966,0.4184
3967,0.0398
3968,-0.1195
3969,-0.2391
3970,-0.3984
3971,-0.1992
3972,-0.0598
3973,-0.0199
3974,-0.0797
3975,-0.1195
3976,-0.0199
3977,0.1793
3978,0.2988
3979,0.3188
3980,0.3984
3981,0.3586
3982,0.3387
3983,0.2590
3984,0.1395
3985,0.0996
3986,0.1992
3987,0.2191
3988,0.2391
3989,0.1992
3990,0.1395
3991,0.0199
3992,-0.2191
3993,-0.2988
3994,-0.0797
3995,-0.0598
3996,0.0797
3997,0.1594
3998,0.2391
3999,0.1195
4000,0.0398
4001,-0.0996
4002,-0.1594
4003,-0.3387
4004,-0.4980
4005,-0.6773
4006,-0.7570
4007,-0.7172
4008,-0.5578
4009,-0.2789
4010,-0.0996
4011,0.0000
4012,0.0996
4013,0.1793
4014,0.2191
4015,0.3188
4016,0.1395
4017,0.0000
4018,-0.0996
4019,-0.2391
4020,-0.3387
4021,-0.3586
4022,-0.2988
4023,-0.2789
4024,-0.0797
4025,0.0996
4026,0.2789
4027,0.4781
4028,0.5977
4029,0.5578
4030,0.3785
4031,0.1195
4032,-0.1992
4033,-0.4184
4034,-0.7570
4035,-0.9961
4036,-0.9563
4037,-0.7770
4038,-0.3984
4039,-0.2590
4040,-0.1594
4041,-0.0598
4042,0.0797
4043,0.0797
4044,0.0598
4045,0.0000
4046,-0.1195
4047,-0.1793
4048,-0.1395
4049,-0.0598
4050,0.0199
4051,0.1395
4052,0.1594
4053,0.0996
4054,0.0398
4055,-0.0398
4056,0.0996
4057,0.0598
4058,-0.1395
4059,-0.2191
4060,-0.3387
4061,-0.2590
4062,-0.1992
4063,0.0398
4064,0.2191
4065,0.1395
4066,0.1793
4067,0.3387
4068,0.2789
4069,0.1395
4070,-0.0797
4071,-0.0996
4072,-0.0598
4073,-0.0398
4074,0.0199
4075,0.0797
4076,0.0797
4077,0.0797
4078,0.2391
4079,0.3586
4080,0.3984
4081,0.2590
4082,0.1594
4083,-0.0398
4084,-0.1992
4085,-0.2391
4086,-0.1395
4087,0.0398
4088,0.2391
4089,0.2789
4090,0.3586
4091,0.3586
4092,0.4184
4093,0.6375
4094,0.6973
4095,0.7570
4096,0.8168
4097,0.7371
4098,0.6375
4099,0.3984
4100,0.3188
4101,0.3188
4102,0.3188
4103,0.1992
4104,0.0398
4105,0.0199
4106,0.0398
4107,0.0996
4108,0.1992
4109,0.2789
4110,0.3387
4111,0.4582
4112,0.5379
4113,0.5379
4114,0.4582
4115,0.3984
4116,0.4184
4117,0.3785
4118,0.1594
4119,-0.1395
4120,-0.2391
4121,-0.1195
4122,-0.0199
4123,-0.0797
4124,-0.2391
4125,-0.2789
4126,-0.2590
4127,-0.2590
4128,-0.2391
4129,-0.2191
4130,-0.1395
4131,-0.0598
4132,-0.1195
4133,-0.0398
4134,0.0199
4135,0.1395
4136,0.1195
4137,0.1992
4138,0.2191
4139,0.2191
4140,0.2191
4141,0.1992
4142,0.2590
4143,0.1793
4144,0.1195
4145,0.0199
4146,-0.1793
4147,-0.4184
4148,-0.4582
4149,-0.4582
4150,-0.4781
4151,-0.5180
4152,-0.4582
4153,-0.3188
4154,-0.1793
4155,-0.0199
4156,0.2590
4157,0.3387
4158,0.4582
4159,0.4383
4160,0.3387
4161,0.1195
4162,-0.0996
4163,-0.4383
4164,-0.6773
4165,-0.6773
4166,-0.5777
4167,-0.5180
4168,-0.2789
4169,-0.2789
4170,-0.2391
4171,-0.0398
4172,0.0000
4173,0.0398
4174,0.0996
4175,0.1594
4176,0.2789
4177,0.3387
4178,0.4184
4179,0.4184
4180,0.3188
4181,0.1992
4182,0.0797
4183,0.0398
4184,0.0199
4185,0.0000
4186,0.1594
4187,0.1992
4188,0.2988
4189,0.2988
4190,0.1992
4191,0.2789
4192,0.2590
4193,0.3188
4194,0.1992
4195,0.1195
4196,0.0996
4197,-0.0996
4198,-0.3785
4199,-0.5977
4200,-0.6375
4201,-0.5578
4202,-0.1992
4203,0.0000
4204,0.1195
4205,0.2391
4206,0.2391
4207,0.2988
4208,0.3387
4209,0.2590
4210,0.0398
4211,-0.1195
4212,-0.2988
4213,-0.5977
4214,-0.6176
4215,-0.3586
4216,-0.2191
4217,-0.2789
4218,-0.2391
4219,-0.1992
4220,-0.1793
4221,-0.1793
4222,-0.0398
4223,0.1195
4224,0.1195
4225,0.1793
4226,0.1395
4227,0.1992
4228,0.1793
4229,0.1195
4230,-0.0797
4231,-0.2391
4232,-0.4383
4233,-0.4980
4234,-0.2988
4235,-0.2391
4236,-0.0797
4237,0.0797
4238,0.2988
4239,0.3586
4240,0.3586
4241,0.2391
4242,0.1594
4243,-0.2191
4244,-0.4781
4245,-0.3188
4246,-0.1992
4247,-0.2191
4248,-0.2391
4249,-0.1395
4250,-0.0996
4251,-0.0797
4252,-0.0996
4253,0.0000
4254,0.0199
4255,0.0598
4256,0.1793
4257,0.2988
4258,0.3387
4259,0.2391
4260,0.0598
4261,-0.2191
4262,-0.4383
4263,-0.4781
4264,-0.4582
4265,-0.2590
4266,-0.1195
4267,-0.0598
4268,0.1395
4269,0.2191
4270,0.3984
4271,0.6176
4272,0.5578
4273,0.4781
4274,0.2789
4275,0.0199
4276,-0.2391
4277,-0.4184
4278,-0.4184
4279,-0.2191
4280,-0.0398
4281,0.1395
4282,0.2391
4283,0.3984
4284,0.4582
4285,0.5180
4286,0.5578
4287,0.3984
4288,0.2191
4289,-0.1793
4290,-0.3586
4291,-0.4582
4292,-0.3785
4293,-0.2191
4294,-0.0996
4295,-0.0398
4296,0.1793
4297,0.1793
4298,0.1594
4299,0.2789
4300,0.3387
4301,0.3586
4302,0.2988
4303,0.0996
4304,-0.0996
4305,-0.2590
4306,-0.3188
4307,-0.4383
4308,-0.3984
4309,-0.1992
4310,-0.0398
4311,0.0000
4312,-0.0398
4313,0.0598
4314,0.0797
4315,0.0598
4316,0.0199
4317,-0.1195
4318,-0.1195
4319,-0.0797
4320,0.0000
4321,0.1195
4322,0.1992
4323,0.3387
4324,0.2988
4325,0.2391
4326,0.2391
4327,0.0199
4328,-0.2590
4329,-0.4383
4330,-0.5379
4331,-0.6176
4332,-0.5578
4333,-0.4781
4334,-0.2789
4335,-0.0797
4336,0.1195
4337,0.2789
4338,0.4383
4339,0.4980
4340,0.3984
4341,0.2590
4342,0.0598
4343,-0.2391
4344,-0.5578
4345,-0.7570
4346,-0.7969
4347,-0.6574
4348,-0.3188
4349,-0.0797
4350,0.0996
4351,0.2590
4352,0.2789
4353,0.2590
4354,0.2789
4355,0.1992
4356,0.0199
4357,-0.1992
4358,-0.2590
4359,-0.2789
4360,-0.2789
4361,-0.3785
4362,-0.5180
4363,-0.5379
4364,-0.3785
4365,-0.2191
4366,0.0000
4367,0.0598
4368,0.1594
4369,0.1195
4370,0.0398
4371,-0.1395
4372,-0.2988
4373,-0.1793
4374,0.0199
4375,0.0598
4376,0.0000
4377,-0.0398
4378,-0.0398
4379,-0.1395
4380,-0.2590
4381,-0.2789
4382,-0.1793
4383,-0.0996
4384,-0.0598
4385,-0.0996
4386,-0.0996
4387,-0.1793
4388,-0.1992
4389,-0.1594
4390,0.0598
4391,0.2590
4392,0.3188
4393,0.3785
4394,0.3785
4395,0.2789
4396,0.1594
4397,0.0598
4398,0.0598
4399,0.0398
4400,0.0996
4401,0.2191
4402,0.0598
4403,0.0398
4404,0.0398
4405,0.0398
4406,-0.0797
4407,-0.1195
4408,-0.0797
4409,-0.0598
4410,-0.0398
4411,0.1793
4412,0.3188
4413,0.3387
4414,0.4184
4415,0.4582
4416,0.3785
4417,0.3387
4418,0.2191
4419,0.0000
4420,-0.2789
4421,-0.4781
4422,-0.6375
4423,-0.5977
4424,-0.4980
4425,-0.2988
4426,-0.0598
4427,0.0797
4428,0.2590
4429,0.3785
4430,0.4383
4431,0.3785
4432,0.3387
4433,0.2191
4434,0.1594
4435,0.1395
4436,0.0797
4437,-0.1195
4438,-0.2789
4439,-0.4781
4440,-0.4383
4441,-0.3586
4442,-0.3586
4443,-0.2988
4444,-0.2590
4445,-0.0199
4446,0.1395
4447,0.2590
4448,0.3785
4449,0.4980
4450,0.4980
4451,0.2988
4452,0.2191
4453,0.0398
4454,-0.2191
4455,-0.6375
4456,-0.7770
4457,-0.6973
4458,-0.4781
4459,-0.3188
4460,-0.1195
4461,0.0000
4462,0.0199
4463,0.0598
4464,-0.0398
4465,-0.0199
4466,-0.0996
4467,-0.2590
4468,-0.3188
4469,-0.3586
4470,-0.2191
4471,-0.0199
4472,0.0398
4473,0.0199
4474,0.0797
4475,0.0797
4476,0.0000
4477,-0.0398
4478,-0.0797
4479,-0.3188
4480,-0.2789
4481,-0.2391
4482,-0.1395
4483,-0.0996
4484,-0.0797
4485,-0.1992
4486,-0.1992
4487,-0.1195
4488,-0.1395
4489,-0.2789
4490,-0.1992
4491,-0.1395
4492,-0.0199
4493,0.1195
4494,0.2391
4495,0.2391
4496,0.1395
4497,-0.0199
4498,-0.1594
4499,-0.1992
4500,-0.3188
4501,-0.3188
4502,-0.1594
4503,0.0797
4504,0.2191
4505,0.1395
4506,0.0996
4507,0.0000
4508,-0.0996
4509,-0.0598
4510,0.0199
4511,-0.0398
4512,0.0598
4513,0.2391
4514,0.3188
4515,0.4582
4516,0.4781
4517,0.4184
4518,0.1992
4519,-0.0398
4520,-0.2391
4521,-0.2988
4522,-0.2391
4523,-0.0199
4524,0.1793
4525,0.3188
4526,0.1992
4527,0.1395
4528,0.0398
4529,0.0199
4530,-0.0199
4531,0.0598
4532,0.0598
4533,0.1594
4534,0.0996
4535,0.2191
4536,0.2789
4537,0.1594
4538,0.1395
4539,0.0598
4540,-0.1395
4541,-0.2590
4542,-0.1793
4543,-0.0996
4544,-0.0598
4545,-0.0598
4546,-0.0398
4547,-0.0996
4548,0.0199
4549,0.0598
4550,0.1395
4551,0.2789
4552,0.3586
4553,0.4980
4554,0.6176
4555,0.6773
4556,0.5777
4557,0.4582
4558,0.2988
4559,0.1395
4560,-0.0398
4561,-0.1594
4562,-0.1793
4563,-0.4582
4564,-0.5977
4565,-0.4980
4566,-0.3188
4567,-0.1395
4568,0.0797
4569,0.2988
4570,0.4383
4571,0.5578
4572,0.4383
4573,0.2590
4574,-0.0996
4575,-0.3188
4576,-0.6375
4577,-0.7371
4578,-0.5777
4579,-0.2789
4580,0.0000
4581,0.1992
4582,0.2789
4583,0.2391
4584,0.0996
4585,0.0199
4586,-0.0199
4587,-0.0398
4588,-0.0199
4589,-0.0199
4590,0.0199
4591,-0.1594
4592,-0.2590
4593,-0.1395
4594,-0.1195
4595,0.0000
4596,0.1992
4597,0.2988
4598,0.3984
4599,0.2988
4600,0.0996
4601,-0.1195
4602,-0.3188
4603,-0.4383
4604,-0.5379
4605,-0.3984
4606,-0.1793
4607,-0.1793
4608,-0.1195
4609,-0.1395
4610,-0.1594
4611,-0.0996
4612,-0.1195
4613,0.0000
4614,-0.0598
4615,0.0797
4616,0.0797
4617,0.2590
4618,0.3586
4619,0.2789
4620,0.2590
4621,0.1395
4622,-0.0797
4623,-0.1594
4624,-0.2191
4625,-0.2191
4626,-0.1594
4627,-0.1195
4628,-0.1195
4629,-0.0797
4630,0.0398
4631,0.1195
4632,0.0996
4633,0.0797
4634,0.0000
4635,-0.0598
4636,0.0000
4637,0.0996
4638,0.1195
4639,0.2391
4640,0.2988
4641,0.1793
4642,-0.0598
4643,-0.0996
4644,0.0000
4645,0.2191
4646,0.2391
4647,0.1195
4648,-0.0398
4649,-0.1195
4650,-0.2391
4651,-0.3387
4652,-0.2988
4653,-0.1594
4654,-0.1195
4655,-0.1395
4656,-0.2391
4657,-0.3586
4658,-0.0996
4659,0.1594
4660,0.3785
4661,0.3785
4662,0.3586
4663,0.3785
4664,0.2191
4665,0.1793
4666,0.1195
4667,0.1594
4668,0.1992
4669,0.0398
4670,-0.1594
4671,-0.4184
4672,-0.5379
4673,-0.3188
4674,-0.0797
4675,0.0996
4676,0.0598
4677,0.1195
4678,0.1395
4679,0.1793
4680,0.1594
4681,0.2391
4682,0.1594
4683,0.2191
4684,0.2988
4685,0.3586
4686,0.4582
4687,0.4781
4688,0.4980
4689,0.4582
4690,0.3188
4691,0.0598
4692,-0.2191
4693,-0.5578
4694,-0.6375
4695,-0.4383
4696,-0.2590
4697,-0.0996
4698,0.0398
4699,0.0996
4700,0.1594
4701,0.2590
4702,0.2988
4703,0.4582
4704,0.5180
4705,0.6176
4706,0.7770
4707,0.8367
4708,0.8367
4709,0.6375
4710,0.4383
4711,0.0996
4712,-0.3387
4713,-0.7172
4714,-0.8367
4715,-0.7371
4716,-0.4781
4717,-0.3785
4718,-0.2191
4719,-0.0797
4720,-0.0398
4721,-0.0598
4722,0.0199
4723,0.1594
4724,0.2988
4725,0.3586
4726,0.5180
4727,0.4582
4728,0.3984
4729,0.3387
4730,0.3785
4731,0.2789
4732,0.3586
4733,0.2391
4734,0.1395
4735,-0.0199
4736,-0.3387
4737,-0.5777
4738,-0.5977
4739,-0.5777
4740,-0.4781
4741,-0.5180
4742,-0.3785
4743,-0.1195
4744,-0.0199
4745,0.0598
4746,0.1992
4747,0.2988
4748,0.3387
4749,0.3387
4750,0.2789
4751,0.2789
4752,0.1992
4753,0.0199
4754,-0.1195
4755,-0.1992
4756,-0.3387
4757,-0.5578
4758,-0.4980
4759,-0.3188
4760,-0.1992
4761,-0.1195
4762,-0.0199
4763,0.0000
4764,-0.0398
4765,-0.0398
4766,-0.1594
4767,-0.1195
4768,-0.0398
4769,-0.0398
4770,-0.0199
4771,-0.0398
4772,-0.0797
4773,-0.0996
4774,-0.2191
4775,-0.2988
4776,-0.4383
4777,-0.4781
4778,-0.2590
4779,-0.1992
4780,-0.1793
4781,-0.0598
4782,-0.0797
4783,-0.0398
4784,0.0000
4785,0.0996
4786,0.1992
4787,0.3387
4788,0.5180
4789,0.5977
4790,0.5777
4791,0.4582
4792,0.1594
4793,-0.1594
4794,-0.5578
4795,-0.7570
4796,-0.7570
4797,-0.6176
4798,-0.3984
4799,-0.2988
4800,-0.0598
4801,0.1594
4802,0.3188
4803,0.3785
4804,0.2988
4805,0.2590
4806,0.1594
4807,0.0797
4808,-0.0797
4809,-0.1793
4810,-0.0398
4811,0.0000
4812,0.0000
4813,-0.0797
4814,-0.0199
4815,0.1195
4816,0.3188
4817,0.4383
4818,0.6176
4819,0.6773
4820,0.5578
4821,0.4582
4822,0.2789
4823,0.2391
4824,0.2391
4825,0.0797
4826,-0.0797
4827,-0.2789
4828,-0.2988
4829,-0.1992
4830,-0.0598
4831,-0.0398
4832,-0.2191
4833,-0.2590
4834,-0.1793
4835,-0.0598
4836,0.0996
4837,0.1594
4838,0.1395
4839,0.1992
4840,0.1992
4841,0.2191
4842,0.2590
4843,0.2391
4844,0.2988
4845,0.2191
4846,0.1195
4847,-0.1195
4848,-0.1793
4849,-0.1793
4850,-0.1992
4851,-0.2988
4852,-0.3785
4853,-0.4184
4854,-0.3785
4855,-0.2789
4856,-0.1195
4857,0.0598
4858,0.1793
4859,0.2391
4860,0.2191
4861,0.2590
4862,0.2191
4863,0.1793
4864,0.0996
4865,0.0199
4866,0.0598
4867,0.1195
4868,0.2191
4869,0.0797
4870,-0.0797
4871,-0.1594
4872,-0.2191
4873,-0.3387
4874,-0.3387
4875,-0.1992
4876,-0.1395
4877,-0.1195
4878,-0.0797
4879,-0.1793
4880,-0.0797
4881,0.0797
4882,0.1195
4883,0.0598
4884,0.0797
4885,0.0398
4886,-0.0598
4887,-0.1992
4888,-0.2391
4889,-0.3586
4890,-0.3785
4891,-0.3188
4892,-0.1594
4893,0.0598
4894,0.1195
4895,0.1195
4896,0.0398
4897,-0.0398
4898,-0.0398
4899,-0.1195
4900,-0.0199
4901,0.0199
4902,0.0398
4903,0.0398
4904,0.0398
4905,-0.0199
4906,0.0199
4907,0.0199
4908,-0.1195
4909,-0.2391
4910,-0.1793
4911,-0.1195
4912,-0.0199
4913,0.0000
4914,0.0398
4915,0.1793
4916,0.2590
4917,0.2789
4918,0.3188
4919,0.3387
4920,0.3188
4921,0.3387
4922,0.1594
4923,0.0398
4924,-0.0598
4925,-0.1992
4926,-0.2789
4927,-0.1594
4928,-0.0199
4929,-0.1195
4930,-0.3984
4931,-0.5180
4932,-0.3984
4933,-0.2590
4934,-0.1793
4935,-0.1195
4936,0.0199
4937,0.1594
4938,0.2191
4939,0.0996
4940,-0.0199
4941,-0.0996
4942,-0.3586
4943,-0.3984
4944,-0.2789
4945,-0.0996
4946,0.1195
4947,0.2789
4948,0.2988
4949,0.3984
4950,0.2191
4951,0.1195
4952,-0.1594
4953,-0.3586
4954,-0.2988
4955,-0.2191
4956,-0.3387
4957,-0.4582
4958,-0.3387
4959,-0.1992
4960,0.0000
4961,0.1395
4962,0.2789
4963,0.4383
4964,0.6176
4965,0.5777
4966,0.5180
4967,0.3188
4968,0.0598
4969,-0.1594
4970,-0.1195
4971,-0.0598
4972,-0.0398
4973,-0.0199
4974,-0.0398
4975,-0.1793
4976,-0.2789
4977,-0.3188
4978,-0.2789
4979,-0.0996
4980,0.0199
4981,-0.0199
4982,0.0598
4983,0.1195
4984,0.1195
4985,0.1395
4986,0.1594
4987,0.2191
4988,0.2789
4989,0.1195
4990,0.0996
4991,0.0199
4992,-0.0797
4993,-0.1195
4994,0.0996
4995,0.2391
4996,0.3586
4997,0.2988
4998,0.2191
4999,0.0000
5000,-0.2590
5001,-0.4980
5002,-0.5977
5003,-0.4980
5004,-0.4582
5005,-0.3586
5006,-0.2391
5007,-0.1594
5008,0.0000
5009,0.0797
5010,0.0996
5011,0.1793
5012,0.1395
5013,0.1594
5014,0.1594
5015,0.1594
5016,0.1195
5017,-0.0199
5018,-0.1195
5019,-0.1793
5020,-0.1793
5021,-0.0199
5022,0.0598
5023,0.2191
5024,0.2789
5025,0.2590
5026,0.1793
5027,-0.0398
5028,-0.2191
5029,-0.3188
5030,-0.3387
5031,-0.2988
5032,-0.0797
5033,0.0797
5034,0.2191
5035,0.2391
5036,0.2590
5037,-0.0398
5038,-0.1594
5039,-0.2988
5040,-0.3387
5041,-0.3387
5042,-0.2988
5043,-0.2191
5044,-0.0598
5045,0.0398
5046,0.1395
5047,0.2590
5048,0.3387
5049,0.4582
5050,0.4781
5051,0.3586
5052,0.2391
5053,0.0398
5054,-0.0797
5055,-0.1992
5056,-0.2789
5057,-0.3188
5058,-0.2391
5059,-0.2789
5060,-0.3984
5061,-0.4383
5062,-0.3188
5063,-0.1395
5064,-0.0398
5065,0.0797
5066,0.1395
5067,0.1395
5068,0.1395
5069,0.1395
5070,0.0797
5071,0.0598
5072,-0.0598
5073,-0.1195
5074,-0.1793
5075,-0.1395
5076,0.0000
5077,0.0797
5078,0.0797
5079,0.1793
5080,0.0797
5081,0.0199
5082,-0.1195
5083,-0.2191
5084,-0.3785
5085,-0.3785
5086,-0.2789
5087,-0.1195
5088,0.0996
5089,0.1992
5090,0.0797
5091,-0.2789
5092,-0.4383
5093,-0.5180
5094,-0.5977
5095,-0.5180
5096,-0.2191
5097,-0.0199
5098,0.1594
5099,0.3586
5100,0.4781
5101,0.5977
5102,0.4980
5103,0.2988
5104,0.0598
5105,-0.1195
5106,-0.4582
5107,-0.7172
5108,-0.8168
5109,-0.3984
5110,0.0000
5111,0.1594
5112,0.2191
5113,0.2590
5114,0.3387
5115,0.3785
5116,0.3188
5117,0.3586
5118,0.2789
5119,0.1195
5120,-0.2391
5121,-0.4184
5122,-0.5578
5123,-0.4781
5124,-0.2988
5125,-0.0996
5126,0.1395
5127,0.1992
5128,0.1992
5129,0.1793
5130,0.1793
5131,0.2789
5132,0.3188
5133,0.4582
5134,0.4184
5135,0.4781
5136,0.5777
5137,0.4980
5138,0.2988
5139,0.0996
5140,-0.1395
5141,-0.3984
5142,-0.7172
5143,-0.8168
5144,-0.8168
5145,-0.5379
5146,-0.2789
5147,-0.0398
5148,0.1195
5149,0.1992
5150,0.2590
5151,0.2789
5152,0.2590
5153,0.2590
5154,0.2590
5155,0.1793
5156,0.0797
5157,0.0598
5158,0.0000
5159,-0.0598
5160,-0.0199
5161,0.0000
5162,-0.0598
5163,-0.0398
5164,0.0398
5165,0.1195
5166,0.1195
5167,0.0797
5168,-0.0797
5169,-0.4383
5170,-0.6574
5171,-0.7172
5172,-0.5578
5173,-0.4184
5174,-0.2988
5175,-0.0996
5176,0.0000
5177,0.0598
5178,0.0000
5179,-0.0797
5180,-0.0996
5181,-0.2988
5182,-0.1992
5183,-0.0996
5184,0.0398
5185,0.1992
5186,0.2391
5187,0.3785
5188,0.4184
5189,0.3785
5190,0.2590
5191,0.0598
5192,-0.1395
5193,-0.3387
5194,-0.3586
5195,-0.1594
5196,0.0996
5197,0.1793
5198,0.1594
5199,0.1395
5200,0.1594
5201,0.2590
5202,0.2789
5203,0.2789
5204,0.2590
5205,0.2988
5206,0.2789
5207,0.1992
5208,0.1594
5209,0.0598
5210,-0.0398
5211,-0.1395
5212,-0.2988
5213,-0.2988
5214,-0.2191
5215,0.0199
5216,0.2391
5217,0.2590
5218,0.1594
5219,0.0000
5220,-0.2391
5221,-0.2590
5222,-0.0398
5223,0.1594
5224,0.3586
5225,0.4184
5226,0.3188
5227,0.2590
5228,0.1195
5229,0.0398
5230,-0.1395
5231,0.0199
5232,0.2191
5233,0.2191
5234,-0.0199
5235,-0.3387
5236,-0.5180
5237,-0.6574
5238,-0.6973
5239,-0.7770
5240,-0.6176
5241,-0.4383
5242,-0.2988
5243,-0.1793
5244,-0.0598
5245,0.0398
5246,0.0797
5247,0.0398
5248,0.1195
5249,0.0598
5250,0.0598
5251,0.0996
5252,0.1793
5253,0.2191
5254,0.2391
5255,0.3984
5256,0.4582
5257,0.4184
5258,0.3984
5259,0.1793
5260,-0.0398
5261,-0.2191
5262,-0.6574
5263,-0.7570
5264,-0.6176
5265,-0.3984
5266,-0.1395
5267,0.0797
5268,0.2590
5269,0.2988
5270,0.2590
5271,0.1793
5272,0.1594
5273,0.1195
5274,0.0199
5275,-0.1195
5276,-0.2789
5277,-0.3984
5278,-0.4781
5279,-0.4781
5280,-0.2391
5281,-0.0398
5282,0.0996
5283,0.2191
5284,0.2789
5285,0.2590
5286,0.0598
5287,-0.1594
5288,-0.4383
5289,-0.6574
5290,-0.6574
5291,-0.5977
5292,-0.4781
5293,-0.2590
5294,-0.1195
5295,0.0000
5296,0.0398
5297,0.0199
5298,-0.0797
5299,-0.2191
5300,-0.2988
5301,-0.2391
5302,-0.1992
5303,-0.1992
5304,-0.0797
5305,-0.0199
5306,0.1195
5307,0.2391
5308,0.3785
5309,0.3586
5310,0.2590
5311,0.0000
5312,-0.2191
5313,-0.3785
5314,-0.2988
5315,-0.0598
5316,0.1395
5317,0.1594
5318,0.1195
5319,-0.0598
5320,-0.2789
5321,-0.4582
5322,-0.4383
5323,-0.3984
5324,-0.2191
5325,-0.0996
5326,0.0199
5327,0.0000
5328,0.0996
5329,0.1395
5330,0.2789
5331,0.3785
5332,0.4781
5333,0.3785
5334,0.1793
5335,-0.0598
5336,-0.3586
5337,-0.3984
5338,-0.3188
5339,-0.2590
5340,-0.1395
5341,-0.0996
5342,-0.1793
5343,-0.2988
5344,-0.2191
5345,-0.0598
5346,-0.0398
5347,0.0797
5348,0.1594
5349,0.2590
5350,0.2789
5351,0.2789
5352,0.3188
5353,0.3387
5354,0.2789
5355,0.2191
5356,0.0996
5357,0.0000
5358,-0.2191
5359,-0.4781
5360,-0.7172
5361,-0.7172
5362,-0.3984
5363,-0.0199
5364,0.1195
5365,0.3387
5366,0.3785
5367,0.4781
5368,0.4582
5369,0.2988
5370,0.0598
5371,-0.2391
5372,-0.3188
5373,-0.1992
5374,-0.1395
5375,-0.0797
5376,-0.0797
5377,-0.0797
5378,0.0996
5379,0.1793
5380,0.2590
5381,0.2789
5382,0.2789
5383,0.3188
5384,0.3586
5385,0.2590
5386,0.0797
5387,0.0199
5388,0.0398
5389,-0.0199
5390,0.0000
5391,0.0598
5392,0.1195
5393,0.3188
5394,0.4383
5395,0.5180
5396,0.4582
5397,0.2789
5398,0.0598
5399,-0.2789
5400,-0.4184
5401,-0.4980
5402,-0.3188
5403,-0.0199
5404,0.1793
5405,0.3785
5406,0.3984
5407,0.3586
5408,0.2590
5409,0.1395
5410,0.0000
5411,-0.0996
5412,-0.0199
5413,-0.0598
5414,-0.0797
5415,-0.1793
5416,-0.1195
5417,0.0398
5418,0.1793
5419,0.2590
5420,0.1793
5421,0.1195
5422,0.0797
5423,0.1594
5424,0.1594
5425,0.2391
5426,0.1793
5427,0.0398
5428,-0.0598
5429,-0.1793
5430,-0.2391
5431,-0.1195
5432,-0.0398
5433,-0.0199
5434,0.0797
5435,0.1793
5436,0.2590
5437,0.2191
5438,0.2391
5439,0.2391
5440,0.0797
5441,0.0398
5442,-0.1793
5443,-0.1594
5444,-0.0199
5445,0.0996
5446,-0.0199
5447,-0.2191
5448,-0.3785
5449,-0.6176
5450,-0.7770
5451,-0.4383
5452,-0.1195
5453,0.1992
5454,0.3387
5455,0.4383
5456,0.4383
5457,0.3387
5458,0.2391
5459,0.0000
5460,-0.1992
5461,-0.3188
5462,-0.6176
5463,-0.6773
5464,-0.5777
5465,-0.4383
5466,-0.1793
5467,0.0000
5468,0.2191
5469,0.2590
5470,0.4184
5471,0.4781
5472,0.4980
5473,0.3586
5474,0.1195
5475,-0.1793
5476,-0.4184
5477,-0.7172
5478,-0.8168
5479,-0.7570
5480,-0.3984
5481,-0.1992
5482,-0.0598
5483,-0.0398
5484,0.1195
5485,0.1594
5486,0.1195
5487,0.0598
5488,0.1195
5489,-0.0598
5490,-0.1395
5491,-0.2590
5492,-0.1594
5493,0.0000
5494,0.0797
5495,0.1793
5496,0.2391
5497,0.2391
5498,0.2391
5499,0.2590
5500,0.2191
5501,0.1594
5502,0.0996
5503,-0.0199
5504,-0.1793
5505,-0.1992
5506,-0.3387
5507,-0.4781
5508,-0.5977
5509,-0.5180
5510,-0.2789
5511,-0.0398
5512,0.1992
5513,0.3785
5514,0.4980
5515,0.5180
5516,0.3984
5517,0.2789
5518,-0.1793
5519,-0.6574
5520,-0.9563
5521,-0.8168
5522,-0.3984
5523,-0.1395
5524,-0.0199
5525,0.0398
5526,0.0996
5527,0.0996
5528,0.0996
5529,0.0199
5530,0.0398
5531,-0.0199
5532,0.0000
5533,0.0398
5534,0.0797
5535,0.0598
5536,0.1793
5537,0.3387
5538,0.3586
5539,0.3984
5540,0.3785
5541,0.2988
5542,0.2191
5543,0.0199
5544,-0.1195
5545,-0.0996
5546,-0.1992
5547,-0.3188
5548,-0.2988
5549,-0.2391
5550,-0.0598
5551,0.1992
5552,0.3984
5553,0.4582
5554,0.4781
5555,0.4383
5556,0.3586
5557,0.1594
5558,-0.1594
5559,-0.3785
5560,-0.3785
5561,-0.2391
5562,-0.0598
5563,0.0398
5564,0.1395
5565,0.2789
5566,0.2988
5567,0.2988
5568,0.3586
5569,0.3387
5570,0.3984
5571,0.2988
5572,0.1594
5573,0.0797
5574,-0.0199
5575,-0.0398
5576,-0.1594
5577,-0.1992
5578,-0.1594
5579,0.1793
5580,0.4184
5581,0.4980
5582,0.5180
5583,0.5180
5584,0.3586
5585,0.0797
5586,-0.1395
5587,-0.2191
5588,-0.3984
5589,-0.3984
5590,-0.4781
5591,-0.3586
5592,-0.2590
5593,-0.0398
5594,0.0598
5595,0.1195
5596,0.1594
5597,0.1594
5598,0.2590
5599,0.3586
5600,0.5180
5601,0.6574
5602,0.6773
5603,0.6574
5604,0.5379
5605,0.3387
5606,0.0398
5607,-0.4582
5608,-0.7172
5609,-0.5379
5610,-0.1395
5611,0.0797
5612,0.1395
5613,0.1195
5614,0.0398
5615,0.0000
5616,0.0000
5617,0.0598
5618,0.1195
5619,0.1594
5620,0.1395
5621,0.0598
5622,0.0199
5623,0.0000
5624,-0.0996
5625,-0.1395
5626,0.0199
5627,0.1594
5628,0.3387
5629,0.2988
5630,0.2789
5631,0.0996
5632,-0.2191
5633,-0.4184
5634,-0.4980
5635,-0.4582
5636,-0.3785
5637,-0.1992
5638,-0.0598
5639,-0.1395
5640,-0.1793
5641,-0.1195
5642,-0.0199
5643,0.0797
5644,0.0199
5645,-0.0199
5646,0.0398
5647,0.1992
5648,0.1992
5649,0.1594
5650,0.0996
5651,-0.0199
5652,-0.2191
5653,-0.2191
5654,-0.1395
5655,-0.0996
5656,-0.0398
5657,-0.0598
5658,0.0000
5659,0.0797
5660,0.0000
5661,-0.0199
5662,-0.0598
5663,-0.0797
5664,-0.0996
5665,-0.0199
5666,0.0797
5667,0.0598
5668,0.0598
5669,0.0398
5670,0.0996
5671,0.1594
5672,0.0598
5673,-0.0996
5674,-0.2789
5675,-0.4980
5676,-0.3984
5677,-0.2391
5678,-0.1594
5679,-0.0996
5680,-0.1195
5681,-0.0996
5682,-0.1395
5683,-0.0797
5684,-0.1195
5685,-0.0598
5686,-0.0199
5687,0.0000
5688,-0.1594
5689,-0.1793
5690,-0.0996
5691,-0.1594
5692,-0.2191
5693,-0.1992
5694,-0.1793
5695,-0.3387
5696,-0.3387
5697,-0.2391
5698,0.0199
5699,0.2191
5700,0.3387
5701,0.4582
5702,0.3984
5703,0.2789
5704,-0.0398
5705,-0.1992
5706,-0.5379
5707,-0.8766
5708,-0.8566
5709,-0.5777
5710,-0.1793
5711,0.0000
5712,0.0598
5713,0.0398
5714,0.0000
5715,0.0598
5716,0.0797
5717,-0.0199
5718,0.0598
5719,0.2191
5720,0.2391
5721,0.2988
5722,0.2391
5723,0.1992
5724,0.0996
5725,0.1195
5726,0.0797
5727,0.0398
5728,-0.0797
5729,-0.2789
5730,-0.6176
5731,-0.6574
5732,-0.3984
5733,-0.1793
5734,-0.1594
5735,-0.0398
5736,0.0598
5737,0.1793
5738,0.2789
5739,0.3984
5740,0.5578
5741,0.5379
5742,0.3984
5743,0.3586
5744,0.1395
5745,0.0199
5746,-0.0797
5747,-0.0996
5748,0.0199
5749,0.1594
5750,0.1793
5751,0.0996
5752,0.0996
5753,0.0598
5754,0.0000
5755,-0.1395
5756,-0.3188
5757,-0.2191
5758,-0.0199
5759,0.1195
5760,0.3785
5761,0.3387
5762,0.4383
5763,0.4980
5764,0.4980
5765,0.4383
5766,0.4184
5767,0.2590
5768,0.0598
5769,-0.2789
5770,-0.5180
5771,-0.7371
5772,-0.7172
5773,-0.5578
5774,-0.3785
5775,-0.0598
5776,0.0000
5777,0.0199
5778,0.1395
5779,0.0996
5780,0.0797
5781,0.0996
5782,-0.0398
5783,0.0398
5784,0.0996
5785,0.1395
5786,0.1793
5787,0.1793
5788,0.2391
5789,0.1793
5790,0.2590
5791,0.2988
5792,0.2191
5793,0.1395
5794,-0.0199
5795,-0.1195
5796,-0.0797
5797,-0.0797
5798,0.0398
5799,0.1992
5800,0.1793
5801,0.3387
5802,0.3586
5803,0.3188
5804,0.2191
5805,0.0996
5806,-0.1594
5807,-0.4184
5808,-0.3188
5809,0.0598
5810,0.3586
5811,0.4980
5812,0.4781
5813,0.3387
5814,0.1992
5815,-0.0398
5816,-0.2590
5817,-0.3586
5818,-0.3188
5819,-0.2590
5820,-0.2391
5821,-0.1992
5822,0.1195
5823,0.1594
5824,0.1594
5825,0.0996
5826,0.0000
5827,-0.0996
5828,-0.0797
5829,-0.0598
5830,0.0199
5831,0.0000
5832,-0.0797
5833,-0.0398
5834,0.0398
5835,0.2988
5836,0.3984
5837,0.2988
5838,0.1992
5839,0.0398
5840,-0.1195
5841,-0.3188
5842,-0.4582
5843,-0.4184
5844,-0.3188
5845,-0.2590
5846,-0.1594
5847,-0.0797
5848,-0.0598
5849,0.0000
5850,0.0598
5851,0.1395
5852,0.2988
5853,0.3188
5854,0.2590
5855,0.3188
5856,0.2789
5857,0.1594
5858,0.0598
5859,0.0398
5860,-0.0199
5861,-0.0398
5862,-0.0797
5863,-0.0797
5864,-0.0996
5865,-0.1195
5866,0.0398
5867,0.0598
5868,0.1195
5869,0.0398
5870,0.0199
5871,0.0598
5872,0.0000
5873,-0.0398
5874,-0.1195
5875,0.0000
5876,0.0199
5877,0.0398
5878,-0.0797
5879,-0.2789
5880,-0.3984
5881,-0.4582
5882,-0.4184
5883,-0.2988
5884,-0.1195
5885,0.0398
5886,0.2191
5887,0.4383
5888,0.4781
5889,0.5379
5890,0.5180
5891,0.3387
5892,0.0797
5893,-0.2590
5894,-0.4781
5895,-0.5777
5896,-0.5977
5897,-0.4781
5898,-0.2391
5899,-0.0797
5900,0.0398
5901,0.0199
5902,0.0000
5903,-0.0199
5904,-0.0996
5905,0.0398
5906,0.1195
5907,0.1195
5908,0.1992
5909,0.2988
5910,0.3785
5911,0.3188
5912,0.3188
5913,0.1594
5914,-0.1793
5915,-0.5180
5916,-0.6176
5917,-0.4383
5918,-0.3984
5919,-0.2391
5920,-0.2590
5921,-0.1594
5922,0.0000
5923,0.1793
5924,0.2191
5925,0.4184
5926,0.4184
5927,0.4184
5928,0.3188
5929,0.1395
5930,0.0598
5931,0.0996
5932,0.1195
5933,0.0398
5934,-0.1395
5935,-0.0199
5936,0.1594
5937,0.2988
5938,0.3586
5939,0.3586
5940,0.3785
5941,0.3586
5942,0.2590
5943,0.0797
5944,-0.1992
5945,-0.2590
5946,-0.2988
5947,-0.3387
5948,-0.4184
5949,-0.2988
5950,-0.1395
5951,-0.0797
5952,-0.0797
5953,0.0199
5954,-0.0199
5955,0.0000
5956,0.0398
5957,0.0598
5958,0.0797
5959,0.1395
5960,0.0199
5961,-0.1992
5962,-0.3984
5963,-0.3785
5964,-0.3984
5965,-0.4781
5966,-0.3785
5967,-0.2391
5968,-0.1793
5969,-0.1594
5970,-0.1992
5971,-0.2191
5972,-0.2191
5973,-0.2191
5974,-0.2191
5975,-0.2191
5976,-0.1793
5977,-0.1793
5978,-0.0199
5979,0.1395
5980,0.2590
5981,0.3586
5982,0.3188
5983,0.0797
5984,-0.3387
5985,-0.7371
5986,-1.0758
5987,-1.1555
5988,-0.9762
5989,-0.6176
5990,-0.3586
5991,-0.1992
5992,-0.1594
5993,-0.0996
5994,-0.1594
5995,-0.2590
5996,-0.1793
5997,-0.0398
5998,0.0000
5999,0.0398
6000,0.0598
6001,-0.0797
6002,-0.1395
6003,-0.0996
6004,-0.0398
6005,-0.0598
6006,-0.0996
6007,-0.1992
6008,-0.1992
6009,-0.0598
6010,0.0199
6011,0.1395
6012,0.1195
6013,0.1594
6014,0.0996
6015,-0.0398
6016,-0.1395
6017,-0.1992
6018,-0.1395
6019,-0.0598
6020,0.0598
6021,0.0199
6022,0.0797
6023,0.0996
6024,0.1793
6025,0.2191
6026,0.2191
6027,0.3387
6028,0.3188
6029,0.2988
6030,0.1594
6031,0.0996
6032,-0.0797
6033,-0.0598
6034,-0.0598
6035,-0.1395
6036,-0.1395
6037,-0.1594
6038,-0.1395
6039,-0.1195
6040,-0.0398
6041,-0.0199
6042,0.0598
6043,-0.0199
6044,0.0199
6045,0.0398
6046,0.0797
6047,0.1395
6048,0.1992
6049,0.2590
6050,0.2191
6051,0.3188
6052,0.1992
6053,0.1992
6054,0.0797
6055,-0.0199
6056,0.0199
6057,-0.1395
6058,-0.4582
6059,-0.5379
6060,-0.4184
6061,-0.1793
6062,0.0797
6063,0.3387
6064,0.4383
6065,0.4781
6066,0.4781
6067,0.2988
6068,0.1395
6069,-0.0398
6070,-0.1992
6071,-0.4383
6072,-0.7770
6073,-0.9563
6074,-0.7172
6075,-0.4582
6076,-0.1793
6077,-0.0598
6078,0.0598
6079,0.1793
6080,0.1594
6081,0.1195
6082,0.0398
6083,-0.0199
6084,-0.0398
6085,-0.0398
6086,-0.0797
6087,-0.1594
6088,-0.2191
6089,-0.1395
6090,-0.1395
6091,-0.1395
6092,-0.0797
6093,0.0199
6094,0.2988
6095,0.4184
6096,0.4582
6097,0.4383
6098,0.2590
6099,0.0598
6100,-0.2191
6101,-0.4383
6102,-0.4980
6103,-0.4383
6104,-0.2391
6105,-0.0598
6106,0.0000
6107,0.0797
6108,0.1195
6109,0.1793
6110,0.0598
6111,-0.1195
6112,-0.2988
6113,-0.5180
6114,-0.4980
6115,-0.4383
6116,-0.2988
6117,-0.1395
6118,0.0797
6119,0.1395
6120,0.2391
6121,0.2391
6122,0.3586
6123,0.3785
6124,0.3586
6125,0.3188
6126,0.1793
6127,-0.0199
6128,-0.1992
6129,-0.3785
6130,-0.4184
6131,-0.3586
6132,-0.1395
6133,0.0199
6134,0.1594
6135,0.1992
6136,0.3188
6137,0.3188
6138,0.3785
6139,0.3387
6140,0.2590
6141,0.0797
6142,-0.2988
6143,-0.6574
6144,-0.6973
6145,-0.5379
6146,-0.1793
6147,-0.0199
6148,0.0398
6149,0.1594
6150,0.2391
6151,0.2590
6152,0.3387
6153,0.2789
6154,0.0996
6155,-0.0398
6156,-0.1992
6157,-0.6176
6158,-0.6773
6159,-0.5578
6160,-0.3188
6161,-0.0996
6162,0.1195
6163,0.1395
6164,0.1992
6165,0.2191
6166,0.1992
6167,0.0996
6168,0.0598
6169,-0.0199
6170,0.0199
6171,-0.0398
6172,-0.1195
6173,-0.1992
6174,-0.1992
6175,-0.3984
6176,-0.4184
6177,-0.3387
6178,-0.0797
6179,0.0598
6180,0.1594
6181,0.2988
6182,0.4582
6183,0.5379
6184,0.5777
6185,0.6574
6186,0.6176
6187,0.4383
6188,0.2391
6189,-0.0598
6190,-0.3188
6191,-0.6773
6192,-0.8168
6193,-0.6773
6194,-0.4184
6195,-0.2191
6196,0.0797
6197,0.2590
6198,0.3984
6199,0.4980
6200,0.5379
6201,0.4582
6202,0.2988
6203,0.1992
6204,-0.0398
6205,-0.2590
6206,-0.4184
6207,-0.7371
6208,-0.5180
6209,-0.1992
6210,-0.0398
6211,0.0000
6212,0.1195
6213,0.1594
6214,0.2590
6215,0.3188
6216,0.3984
6217,0.5180
6218,0.4582
6219,0.2988
6220,0.1992
6221,-0.0598
6222,-0.1793
6223,-0.2590
6224,-0.1992
6225,-0.1992
6226,-0.1594
6227,-0.1793
6228,-0.1594
6229,-0.1395
6230,-0.0996
6231,-0.0398
6232,-0.0996
6233,0.0199
6234,0.1195
6235,0.2590
6236,0.4582
6237,0.4980
6238,0.5180
6239,0.4781
6240,0.2391
6241,0.0398
6242,-0.1992
6243,-0.2789
6244,-0.6973
6245,-0.7371
6246,-0.4383
6247,-0.0797
6248,0.1395
6249,0.2590
6250,0.3984
6251,0.5379
6252,0.4781
6253,0.3785
6254,0.0797
6255,-0.2789
6256,-0.5977
6257,-0.7570
6258,-0.9563
6259,-0.8168
6260,-0.5977
6261,-0.1992
6262,0.0996
6263,0.1195
6264,0.1793
6265,0.3188
6266,0.3785
6267,0.3586
6268,0.3586
6269,0.3785
6270,0.3785
6271,0.2191
6272,-0.0598
6273,-0.0996
6274,-0.2191
6275,-0.3984
6276,-0.5180
6277,-0.4980
6278,-0.3188
6279,-0.0598
6280,0.1594
6281,0.2391
6282,0.2789
6283,0.3586
6284,0.4184
6285,0.4383
6286,0.4383
6287,0.3188
6288,0.2590
6289,0.0598
6290,-0.2789
6291,-0.6176
6292,-0.8168
6293,-0.5777
6294,-0.3387
6295,-0.1594
6296,-0.0398
6297,-0.0797
6298,-0.0398
6299,0.0000
6300,0.0797
6301,0.1992
6302,0.1992
6303,0.1594
6304,0.1992
6305,0.1594
6306,0.0996
6307,0.0199
6308,-0.0199
6309,-0.0199
6310,-0.1594
6311,-0.1992
6312,-0.1195
6313,-0.0199
6314,0.0797
6315,0.0996
6316,0.2191
6317,0.3188
6318,0.3785
6319,0.3188
6320,0.1992
6321,0.1594
6322,0.0598
6323,0.0398
6324,-0.1594
6325,-0.1195
6326,-0.1594
6327,-0.1793
6328,-0.1594
6329,-0.1793
6330,-0.0996
6331,0.0199
6332,0.1195
6333,0.2789
6334,0.3785
6335,0.5777
6336,0.5977
6337,0.5777
6338,0.5578
6339,0.3387
6340,0.0797
6341,-0.1992
6342,-0.3785
6343,-0.4980
6344,-0.6773
6345,-0.8168
6346,-0.8566
6347,-0.6176
6348,-0.3984
6349,-0.1594
6350,0.0199
6351,0.0996
6352,0.1395
6353,0.1594
6354,0.2191
6355,0.2789
6356,0.2191
6357,0.1195
6358,-0.0199
6359,-0.0398
6360,-0.1195
6361,-0.1195
6362,-0.0797
6363,0.0199
6364,-0.0797
6365,-0.1195
6366,-0.1793
6367,-0.2988
6368,-0.2789
6369,-0.2191
6370,-0.1992
6371,-0.1992
6372,-0.0398
6373,0.1594
6374,0.1992
6375,0.1793
6376,0.1594
6377,0.0199
6378,-0.0996
6379,-0.0996
6380,-0.2191
6381,-0.2590
6382,-0.1395
6383,-0.0199
6384,-0.0797
6385,-0.2789
6386,-0.3586
6387,-0.4383
6388,-0.4184
6389,-0.2391
6390,-0.0797
6391,-0.0398
6392,-0.0996
6393,-0.1793
6394,-0.1793
6395,-0.0996
6396,0.1395
6397,0.1992
6398,0.3188
6399,0.4184
6400,0.3586
6401,0.2590
6402,0.0598
6403,0.0000
6404,-0.0996
6405,-0.0996
6406,-0.0398
6407,-0.1195
6408,-0.0996
6409,0.0996
6410,0.1992
6411,0.2988
6412,0.3387
6413,0.2590
6414,0.1395
6415,0.0996
6416,0.1195
6417,-0.0199
6418,-0.0797
6419,-0.1195
6420,-0.1793
6421,-0.1992
6422,-0.1992
6423,-0.0598
6424,-0.1195
6425,-0.1195
6426,-0.0996
6427,-0.0398
6428,-0.0398
6429,-0.0199
6430,0.0598
6431,0.1395
6432,0.2590
6433,0.2391
6434,0.3188
6435,0.2789
6436,0.2191
6437,0.1395
6438,0.1395
6439,0.2391
6440,0.3387
6441,0.3984
6442,0.4184
6443,0.4781
6444,0.3387
6445,0.1395
6446,-0.1793
6447,-0.5180
6448,-0.6773
6449,-0.6773
6450,-0.5578
6451,-0.3188
6452,-0.1793
6453,-0.2191
6454,-0.1793
6455,-0.0797
6456,0.1793
6457,0.2590
6458,0.4184
6459,0.4184
6460,0.4184
6461,0.5379
6462,0.4184
6463,0.2988
6464,-0.0199
6465,-0.2789
6466,-0.4781
6467,-0.5977
6468,-0.6176
6469,-0.5777
6470,-0.4781
6471,-0.2590
6472,-0.0797
6473,0.0996
6474,0.2191
6475,0.2590
6476,0.3387
6477,0.3387
6478,0.3984
6479,0.3984
6480,0.3188
6481,0.2590
6482,0.1793
6483,0.0598
6484,-0.1395
6485,-0.0996
6486,-0.0996
6487,-0.1793
6488,-0.1395
6489,0.0199
6490,0.0199
6491,0.0797
6492,0.0598
6493,0.1195
6494,0.1793
6495,0.2391
6496,0.2988
6497,0.1793
6498,0.0000
6499,0.0000
6500,0.0797
6501,0.1395
6502,0.0996
6503,0.0199
6504,-0.1594
6505,-0.3188
6506,-0.3984
6507,-0.2988
6508,-0.2789
6509,-0.3188
6510,-0.2789
6511,-0.1992
6512,-0.1793
6513,-0.2191
6514,-0.0598
6515,0.1195
6516,0.1395
6517,0.1992
6518,0.2391
6519,0.3586
6520,0.4184
6521,0.4383
6522,0.5180
6523,0.4582
6524,0.3785
6525,0.1793
6526,-0.0996
6527,-0.2590
6528,-0.4383
6529,-0.4781
6530,-0.3188
6531,-0.1594
6532,-0.0797
6533,-0.0797
6534,0.0598
6535,0.1793
6536,0.1992
6537,0.0797
6538,-0.1395
6539,-0.1992
6540,-0.3387
6541,-0.2988
6542,-0.3785
6543,-0.3984
6544,-0.2590
6545,-0.0996
6546,0.0797
6547,0.1195
6548,0.1395
6549,0.1594
6550,0.1992
6551,0.1395
6552,0.1793
6553,0.2590
6554,0.2590
6555,0.2391
6556,0.2789
6557,0.2789
6558,0.2789
6559,0.2191
6560,0.2391
6561,0.2391
6562,0.1992
6563,0.1793
6564,0.0598
6565,-0.0398
6566,-0.0199
6567,-0.0996
6568,-0.1793
6569,-0.1395
6570,-0.0797
6571,0.0996
6572,0.2988
6573,0.3387
6574,0.3387
6575,0.1793
6576,0.0398
6577,-0.1594
6578,-0.2391
6579,-0.1992
6580,-0.1594
6581,-0.0598
6582,0.0199
6583,0.0398
6584,0.0398
6585,0.0000
6586,0.0598
6587,0.1395
6588,0.0996
6589,0.0797
6590,-0.0598
6591,-0.0797
6592,0.0000
6593,0.0398
6594,0.0000
6595,0.1395
6596,0.1793
6597,0.1992
6598,0.1793
6599,-0.0199
6600,0.0199
6601,0.2391
6602,0.4184
6603,0.5977
6604,0.7371
6605,0.5777
6606,0.2590
6607,-0.2789
6608,-0.7172
6609,-0.9961
6610,-1.0758
6611,-0.9164
6612,-0.5578
6613,-0.3188
6614,-0.0996
6615,-0.0398
6616,-0.0398
6617,-0.0199
6618,0.1195
6619,0.2191
6620,0.3984
6621,0.3984
6622,0.3586
6623,0.2391
6624,0.1992
6625,0.1594
6626,0.0598
6627,-0.1594
6628,-0.2391
6629,-0.3387
6630,-0.2988
6631,-0.2789
6632,-0.2590
6633,-0.2191
6634,-0.1395
6635,0.0000
6636,0.0398
6637,0.0398
6638,0.0598
6639,0.0996
6640,0.2988
6641,0.3586
6642,0.3785
6643,0.3785
6644,0.2191
6645,0.0797
6646,-0.2391
6647,-0.5777
6648,-0.7770
6649,-0.7570
6650,-0.5379
6651,-0.2590
6652,-0.0598
6653,0.1395
6654,0.1793
6655,0.1793
6656,0.2590
6657,0.1992
6658,0.1992
6659,0.2391
6660,0.1992
6661,0.2590
6662,0.3586
6663,0.4582
6664,0.5180
6665,0.5578
6666,0.4582
6667,0.2789
6668,0.0398
6669,-0.0797
6670,-0.1594
6671,-0.2789
6672,-0.3387
6673,-0.3984
6674,-0.3984
6675,-0.3188
6676,-0.1195
6677,0.0996
6678,0.2191
6679,0.2590
6680,0.2191
6681,0.1395
6682,-0.0996
6683,-0.3785
6684,-0.5379
6685,-0.5379
6686,-0.3387
6687,-0.0598
6688,0.1195
6689,0.1992
6690,0.2590
6691,0.3188
6692,0.3785
6693,0.3387
6694,0.3188
6695,0.3984
6696,0.3984
6697,0.2391
6698,0.0398
6699,-0.1992
6700,-0.3387
6701,-0.3387
6702,-0.3188
6703,-0.2391
6704,-0.1195
6705,-0.0797
6706,-0.0797
6707,0.0000
6708,0.1395
6709,0.2391
6710,0.1594
6711,0.1395
6712,0.0199
6713,0.0398
6714,0.0000
6715,0.0199
6716,0.0398
6717,0.1992
6718,0.2789
6719,0.1395
6720,-0.0797
6721,-0.1395
6722,-0.0598
6723,-0.0199
6724,-0.0797
6725,-0.0996
6726,-0.0996
6727,-0.1195
6728,-0.2191
6729,-0.3387
6730,-0.4383
6731,-0.3188
6732,-0.0797
6733,0.1793
6734,0.3785
6735,0.3785
6736,0.3984
6737,0.2391
6738,0.0797
6739,-0.0797
6740,-0.1594
6741,-0.2391
6742,-0.3188
6743,-0.4184
6744,-0.3984
6745,-0.4184
6746,-0.2988
6747,-0.0797
6748,0.1395
6749,0.1594
6750,0.1992
6751,0.1594
6752,0.1594
6753,0.0797
6754,-0.0199
6755,-0.0598
6756,-0.1195
6757,-0.1195
6758,-0.0199
6759,0.0398
6760,0.2590
6761,0.3984
6762,0.3785
6763,0.3387
6764,0.2789
6765,0.2391
6766,0.1395
6767,-0.0598
6768,-0.1793
6769,-0.2789
6770,-0.4184
6771,-0.3984
6772,-0.4582
6773,-0.2789
6774,-0.1395
6775,-0.0398
6776,0.1594
6777,0.2391
6778,0.2391
6779,0.1395
6780,0.0598
6781,-0.0996
6782,-0.2789
6783,-0.2789
6784,-0.0996
6785,0.1395
6786,0.1992
6787,0.2391
6788,0.0797
6789,-0.1195
6790,-0.3188
6791,-0.3984
6792,-0.3984
6793,-0.2789
6794,-0.0797
6795,0.0598
6796,0.0996
6797,0.1992
6798,0.3188
6799,0.3785
6800,0.3586
6801,0.3984
6802,0.3586
6803,0.2191
6804,0.1594
6805,0.0996
6806,-0.1195
6807,-0.3387
6808,-0.3586
6809,-0.3586
6810,-0.2789
6811,-0.1793
6812,-0.0797
6813,0.0398
6814,0.0199
6815,0.0000
6816,-0.0199
6817,-0.1594
6818,-0.1793
6819,-0.2789
6820,-0.2988
6821,-0.1793
6822,-0.1793
6823,-0.1992
6824,-0.0996
6825,-0.0398
6826,0.1195
6827,0.1793
6828,0.1793
6829,0.1195
6830,-0.0598
6831,-0.1395
6832,-0.1395
6833,-0.0598
6834,-0.0398
6835,0.0598
6836,0.0996
6837,0.0199
6838,-0.0398
6839,-0.0398
6840,-0.0797
6841,-0.1195
6842,-0.0598
6843,0.0797
6844,0.0797
6845,0.1395
6846,-0.0398
6847,-0.1793
6848,-0.3785
6849,-0.4781
6850,-0.3586
6851,-0.1395
6852,-0.0398
6853,0.0199
6854,-0.0598
6855,-0.1195
6856,-0.2590
6857,-0.4383
6858,-0.3984
6859,-0.1793
6860,0.0398
6861,0.1793
6862,0.1395
6863,0.0996
6864,-0.0598
6865,-0.2191
6866,-0.1594
6867,-0.1395
6868,-0.1395
6869,-0.1195
6870,-0.0996
6871,-0.1395
6872,-0.1395
6873,-0.1594
6874,-0.1793
6875,-0.0398
6876,0.1793
6877,0.2988
6878,0.2590
6879,0.3387
6880,0.2391
6881,0.0996
6882,-0.0598
6883,-0.1793
6884,-0.2391
6885,-0.2988
6886,-0.2590
6887,-0.3785
6888,-0.4184
6889,-0.4980
6890,-0.4980
6891,-0.2789
6892,-0.1195
6893,-0.1195
6894,-0.0996
6895,-0.1395
6896,-0.0398
6897,-0.0398
6898,0.0000
6899,0.0797
6900,0.0996
6901,0.1594
6902,0.1793
6903,0.1992
6904,0.1594
6905,0.1195
6906,0.0996
6907,0.0797
6908,0.1195
6909,0.0797
6910,0.0398
6911,-0.0199
6912,-0.1992
6913,-0.1594
6914,-0.2191
6915,-0.3586
6916,-0.3387
6917,-0.2988
6918,0.0000
6919,0.1195
6920,0.2191
6921,0.3387
6922,0.2789
6923,0.1195
6924,-0.0996
6925,-0.1594
6926,-0.2988
6927,-0.4383
6928,-0.4781
6929,-0.3387
6930,-0.1793
6931,0.0398
6932,0.2391
6933,0.2988
6934,0.3188
6935,0.2191
6936,0.1793
6937,0.1195
6938,0.0398
6939,-0.0398
6940,-0.0199
6941,0.0199
6942,0.0398
6943,0.0996
6944,0.2191
6945,0.2988
6946,0.3785
6947,0.4383
6948,0.5578
6949,0.5578
6950,0.5379
6951,0.5578
6952,0.4184
6953,0.2191
6954,-0.0598
6955,-0.2789
6956,-0.1594
6957,-0.0996
6958,-0.0797
6959,-0.1395
6960,-0.1594
6961,-0.1793
6962,-0.2391
6963,-0.2590
6964,-0.1195
6965,0.0398
6966,0.1793
6967,0.2391
6968,0.3984
6969,0.4582
6970,0.4383
6971,0.4781
6972,0.3984
6973,0.2590
6974,0.0398
6975,-0.2191
6976,-0.1594
6977,-0.0598
6978,0.1395
6979,0.1992
6980,0.1594
6981,0.0996
6982,0.0000
6983,-0.0996
6984,-0.1395
6985,-0.0199
6986,0.0398
6987,0.0797
6988,0.1395
6989,0.0797
6990,0.1395
6991,0.0996
6992,-0.0199
6993,-0.2191
6994,-0.3586
6995,-0.4184
6996,-0.3785
6997,-0.4383
6998,-0.3586
6999,-0.1992
7000,0.0000
7001,0.1793
7002,0.1793
7003,0.1992
7004,0.2789
7005,0.1992
7006,0.1395
7007,0.0797
7008,0.0797
7009,0.0996
7010,0.2590
7011,0.3188
7012,0.4383
7013,0.2988
7014,0.1395
7015,-0.1195
7016,-0.2789
7017,-0.5180
7018,-0.4980
7019,-0.6574
7020,-0.7172
7021,-0.4582
7022,-0.3188
7023,-0.2590
7024,-0.3188
7025,-0.2789
7026,-0.1594
7027,-0.0996
7028,-0.0598
7029,0.0199
7030,0.1195
7031,0.1395
7032,0.1594
7033,0.1395
7034,0.1195
7035,0.0996
7036,0.1793
7037,0.2191
7038,0.2988
7039,0.3188
7040,0.3387
7041,0.3785
7042,0.3586
7043,0.2391
7044,0.1793
7045,0.0398
7046,-0.0199
7047,-0.2191
7048,-0.2988
7049,-0.1195
7050,-0.1195
7051,-0.0199
7052,-0.0797
7053,-0.1594
7054,-0.1594
7055,-0.0797
7056,0.0000
7057,0.1594
7058,0.1992
7059,0.0797
7060,0.0996
7061,0.1395
7062,0.1395
7063,0.0797
7064,-0.0598
7065,-0.1793
7066,-0.2191
7067,-0.1195
7068,-0.0199
7069,-0.0797
7070,-0.1195
7071,0.0000
7072,-0.0598
7073,-0.0398
7074,-0.0398
7075,-0.0398
7076,-0.1395
7077,-0.2391
7078,-0.3188
7079,-0.1195
7080,0.0000
7081,0.0398
7082,0.1395
7083,0.1594
7084,0.1395
7085,0.1793
7086,0.2391
7087,0.1992
7088,0.1395
7089,0.0000
7090,-0.0598
7091,-0.1594
7092,-0.0797
7093,0.1195
7094,0.1395
7095,0.1992
7096,0.2590
7097,0.1395
7098,0.0398
7099,-0.1195
7100,-0.2191
7101,-0.2590
7102,-0.2988
7103,-0.2191
7104,-0.1793
7105,-0.2590
7106,-0.3188
7107,-0.3188
7108,-0.1395
7109,-0.0199
7110,0.1195
7111,0.2191
7112,0.2789
7113,0.2391
7114,0.0996
7115,-0.1395
7116,-0.3984
7117,-0.4582
7118,-0.3188
7119,-0.2789
7120,-0.2391
7121,-0.0398
7122,0.0199
7123,0.0996
7124,0.0598
7125,0.0398
7126,0.0598
7127,0.1793
7128,0.2191
7129,0.0199
7130,-0.0996
7131,-0.2391
7132,-0.3387
7133,-0.3785
7134,-0.5180
7135,-0.4582
7136,-0.2191
7137,0.0000
7138,0.2391
7139,0.2988
7140,0.4184
7141,0.4383
7142,0.3586
7143,0.2391
7144,0.0598
7145,-0.0598
7146,-0.1594
7147,-0.2789
7148,-0.2988
7149,-0.0797
7150,0.1195
7151,0.3387
7152,0.4383
7153,0.4980
7154,0.5578
7155,0.3387
7156,0.2391
7157,0.1793
7158,0.1793
7159,-0.0199
7160,-0.1395
7161,-0.1195
7162,-0.1195
7163,-0.0797
7164,-0.0598
7165,-0.0199
7166,0.0398
7167,0.0398
7168,0.0199
7169,-0.0797
7170,-0.0996
7171,-0.0398
7172,-0.0398
7173,-0.0797
7174,-0.0398
7175,-0.1395
7176,-0.1195
7177,-0.1793
7178,-0.1992
7179,-0.2191
7180,-0.2191
7181,-0.1594
7182,-0.0598
7183,-0.0199
7184,-0.0598
7185,-0.0199
7186,0.0199
7187,0.1395
7188,0.2191
7189,0.2191
7190,0.2789
7191,0.2590
7192,0.1395
7193,0.0797
7194,0.0398
7195,-0.0598
7196,-0.0996
7197,0.0000
7198,0.1195
7199,0.0000
7200,0.0000
7201,-0.1195
7202,-0.2988
7203,-0.4184
7204,-0.4980
7205,-0.3984
7206,-0.3387
7207,-0.2191
7208,-0.1195
7209,-0.0598
7210,0.0398
7211,0.1793
7212,0.2590
7213,0.2988
7214,0.3785
7215,0.3387
7216,0.2391
7217,0.2191
7218,0.0199
7219,-0.1594
7220,-0.2191
7221,-0.1594
7222,-0.1594
7223,-0.0996
7224,-0.1395
7225,-0.1793
7226,-0.1992
7227,-0.1195
7228,0.0797
7229,0.2590
7230,0.2789
7231,0.4980
7232,0.5977
7233,0.6574
7234,0.5977
7235,0.5777
7236,0.5180
7237,0.4383
7238,0.2391
7239,0.1395
7240,-0.0797
7241,-0.4980
7242,-1.0359
7243,-1.2152
7244,-1.0957
7245,-0.7969
7246,-0.3586
7247,-0.1195
7248,0.0199
7249,0.0598
7250,0.1195
7251,0.1793
7252,0.2590
7253,0.2789
7254,0.3785
7255,0.3586
7256,0.3387
7257,0.2191
7258,0.2789
7259,0.2789
7260,0.1395
7261,0.0000
7262,-0.0996
7263,-0.0996
7264,-0.1195
7265,-0.0398
7266,0.0398
7267,0.0199
7268,0.0598
7269,-0.0797
7270,-0.0598
7271,0.0398
7272,0.0797
7273,0.0797
7274,0.0398
7275,0.1395
7276,-0.0199
7277,-0.1594
7278,-0.1594
7279,-0.3387
7280,-0.2789
7281,-0.2191
7282,-0.1395
7283,0.0398
7284,0.1195
7285,0.1793
7286,0.2590
7287,0.3188
7288,0.3188
7289,0.1992
7290,0.0598
7291,-0.0598
7292,-0.1594
7293,-0.3387
7294,-0.4781
7295,-0.2789
7296,-0.0797
7297,0.0996
7298,-0.0598
7299,-0.2789
7300,-0.3984
7301,-0.3785
7302,-0.2391
7303,-0.0598
7304,0.0199
7305,0.1793
7306,0.3586
7307,0.3785
7308,0.4184
7309,0.2988
7310,0.1793
7311,-0.0199
7312,-0.2789
7313,-0.3785
7314,-0.3387
7315,-0.0598
7316,0.0996
7317,0.1395
7318,0.1992
7319,0.0000
7320,-0.1395
7321,-0.1793
7322,-0.1793
7323,-0.0996
7324,-0.0199
7325,0.0598
7326,0.2391
7327,0.3188
7328,0.4980
7329,0.6773
7330,0.6375
7331,0.5180
7332,0.3984
7333,0.0598
7334,-0.3188
7335,-0.4980
7336,-0.5977
7337,-0.6176
7338,-0.5180
7339,-0.2988
7340,-0.0797
7341,0.0797
7342,0.1195
7343,0.0398
7344,-0.0398
7345,-0.1992
7346,-0.3785
7347,-0.3387
7348,-0.3387
7349,-0.1594
7350,-0.0996
7351,-0.0598
7352,-0.1594
7353,-0.1195
7354,0.0199
7355,0.1992
7356,0.2988
7357,0.4383
7358,0.4781
7359,0.4383
7360,0.3586
7361,0.0996
7362,-0.2789
7363,-0.4980
7364,-0.5977
7365,-0.9563
7366,-1.0957
7367,-0.8566
7368,-0.4781
7369,-0.2789
7370,-0.1594
7371,0.0000
7372,0.0199
7373,0.0797
7374,0.2391
7375,0.2191
7376,0.1992
7377,0.0996
7378,0.1195
7379,0.1395
7380,-0.0199
7381,-0.1594
7382,-0.2391
7383,-0.1793
7384,-0.0797
7385,-0.0199
7386,0.0398
7387,-0.0398
7388,0.0199
7389,0.0199
7390,-0.0398
7391,-0.0797
7392,-0.0797
7393,-0.1195
7394,-0.0398
7395,0.0199
7396,0.1395
7397,0.1793
7398,0.2590
7399,0.2789
7400,0.3387
7401,0.4184
7402,0.4383
7403,0.4980
7404,0.3785
7405,0.2391
7406,0.1793
7407,0.0797
7408,0.0000
7409,0.0598
7410,0.1793
7411,0.2988
7412,0.2590
7413,0.3387
7414,0.3785
7415,0.2789
7416,0.0000
7417,-0.2590
7418,-0.2988
7419,-0.2988
7420,-0.1395
7421,-0.0996
7422,0.0199
7423,0.1793
7424,0.2191
7425,0.1793
7426,0.0398
7427,-0.1395
7428,-0.3387
7429,-0.3586
7430,-0.2590
7431,-0.1395
7432,-0.0398
7433,0.0996
7434,0.1793
7435,0.2988
7436,0.3387
7437,0.2191
7438,0.1395
7439,0.1395
7440,0.0000
7441,-0.0996
7442,-0.1594
7443,-0.0996
7444,-0.0996
7445,-0.0996
7446,-0.0598
7447,-0.0996
7448,0.0000
7449,0.0199
7450,0.0996
7451,0.2590
7452,0.3586
7453,0.3387
7454,0.1992
7455,0.1195
7456,-0.1793
7457,-0.4781
7458,-0.6773
7459,-0.8168
7460,-0.6773
7461,-0.5777
7462,-0.4582
7463,-0.2391
7464,-0.0797
7465,-0.0797
7466,-0.1195
7467,-0.1195
7468,-0.0996
7469,-0.1195
7470,-0.0398
7471,0.0398
7472,0.1992
7473,0.2988
7474,0.2789
7475,0.2191
7476,0.0996
7477,0.0000
7478,-0.1395
7479,-0.3785
7480,-0.4184
7481,-0.3387
7482,-0.1992
7483,-0.0598
7484,0.0797
7485,0.2191
7486,0.1793
7487,0.1395
7488,0.2191
7489,0.2391
7490,0.3387
7491,0.1793
7492,0.0199
7493,-0.1594
7494,-0.2789
7495,-0.4184
7496,-0.4184
7497,-0.4184
7498,-0.3387
7499,-0.2789
7500,-0.1195
7501,0.0996
7502,0.1195
7503,0.0398
7504,0.0996
7505,0.1594
7506,0.2391
7507,0.1395
7508,0.1195
7509,0.1395
7510,0.1195
7511,0.1195
7512,0.1395
7513,0.2391
7514,0.3586
7515,0.4582
7516,0.5180
7517,0.5180
7518,0.4184
7519,0.1395
7520,-0.0797
7521,-0.3188
7522,-0.4781
7523,-0.5977
7524,-0.3586
7525,-0.0996
7526,0.0797
7527,0.2191
7528,0.2590
7529,0.3586
7530,0.4582
7531,0.4781
7532,0.3984
7533,0.1992
7534,0.0199
7535,-0.0797
7536,-0.2988
7537,-0.4582
7538,-0.2191
7539,0.0398
7540,0.1793
7541,0.2391
7542,0.1992
7543,0.1594
7544,0.1395
7545,0.0398
7546,-0.1195
7547,-0.1793
7548,-0.1395
7549,-0.0996
7550,-0.0398
7551,0.0996
7552,0.1594
7553,0.2988
7554,0.1793
7555,0.1992
7556,0.2789
7557,0.2391
7558,0.1395
7559,0.0598
7560,0.0996
7561,0.1395
7562,0.1395
7563,0.1992
7564,0.3387
7565,0.3586
7566,0.4383
7567,0.4781
7568,0.3188
7569,0.2789
7570,0.1992
7571,0.0598
7572,-0.1395
7573,-0.2391
7574,-0.1793
7575,-0.0598
7576,0.1395
7577,0.1992
7578,0.1992
7579,0.0996
7580,0.1195
7581,0.0996
7582,-0.0996
7583,-0.1594
7584,-0.1195
7585,-0.0398
7586,-0.0598
7587,-0.0996
7588,-0.0996
7589,-0.0598
7590,0.0598
7591,0.0797
7592,0.0000
7593,-0.0598
7594,-0.1793
7595,-0.2789
7596,-0.3188
7597,-0.1793
7598,-0.0398
7599,0.0398
7600,0.1594
7601,0.2191
7602,0.2789
7603,0.3586
7604,0.3586
7605,0.2988
7606,0.1395
7607,0.0199
7608,-0.1594
7609,-0.4781
7610,-0.6176
7611,-0.6574
7612,-0.5777
7613,-0.5379
7614,-0.5977
7615,-0.5777
7616,-0.5180
7617,-0.3785
7618,-0.2988
7619,-0.2590
7620,-0.1594
7621,-0.1992
7622,-0.0996
7623,0.0398
7624,0.1594
7625,0.2789
7626,0.2590
7627,0.3188
7628,0.3586
7629,0.3785
7630,0.3984
7631,0.3586
7632,0.2391
7633,0.1992
7634,0.1195
7635,0.0000
7636,-0.2590
7637,-0.4781
7638,-0.4781
7639,-0.4383
7640,-0.3387
7641,-0.1793
7642,-0.0598
7643,0.0199
7644,-0.0199
7645,0.0000
7646,-0.1793
7647,-0.3387
7648,-0.2391
7649,-0.1594
7650,-0.0797
7651,0.0199
7652,0.0598
7653,0.0000
7654,-0.1395
7655,-0.2391
7656,-0.2191
7657,-0.1793
7658,-0.1195
7659,-0.0199
7660,0.0598
7661,0.1195
7662,0.0199
7663,0.0199
7664,0.0996
7665,0.1395
7666,0.1195
7667,0.1395
7668,0.1594
7669,0.1395
7670,-0.0199
7671,-0.1195
7672,-0.1992
7673,-0.2789
7674,-0.2590
7675,-0.2789
7676,-0.1793
7677,-0.0996
7678,-0.0996
7679,-0.1793
7680,-0.1793
7681,-0.2789
7682,-0.2590
7683,-0.2988
7684,-0.4980
7685,-0.4582
7686,-0.2789
7687,-0.1395
7688,-0.0598
7689,-0.1594
7690,-0.1195
7691,-0.1195
7692,-0.0598
7693,-0.0398
7694,-0.0398
7695,0.0598
7696,0.1395
7697,0.1395
7698,0.1793
7699,0.0398
7700,-0.0797
7701,-0.2590
7702,-0.4184
7703,-0.5578
7704,-0.7770
7705,-0.5977
7706,-0.4184
7707,-0.1992
7708,-0.0598
7709,0.0199
7710,0.0398
7711,0.0598
7712,0.0598
7713,0.0000
7714,0.0797
7715,0.1395
7716,0.1395
7717,0.2191
7718,0.2391
7719,0.4582
7720,0.5180
7721,0.3387
7722,0.2191
7723,0.0199
7724,-0.0797
7725,-0.0398
7726,-0.0398
7727,-0.1594
7728,-0.2789
7729,-0.3785
7730,-0.3188
7731,-0.1195
7732,-0.0199
7733,0.1395
7734,0.2191
7735,0.2789
7736,0.4184
7737,0.5379
7738,0.5977
7739,0.6176
7740,0.6375
7741,0.5379
7742,0.2191
7743,0.0199
7744,-0.3188
7745,-0.3785
7746,-0.4184
7747,-0.5578
7748,-0.3785
7749,-0.2590
7750,-0.1195
7751,-0.1195
7752,-0.0598
7753,0.0797
7754,0.1992
7755,0.2191
7756,0.2191
7757,0.2789
7758,0.1195
7759,0.0000
7760,-0.1793
7761,-0.2191
7762,-0.2590
7763,-0.1992
7764,-0.0199
7765,0.0598
7766,0.1992
7767,0.2590
7768,0.2191
7769,0.2191
7770,0.1594
7771,0.1793
7772,0.1793
7773,0.3785
7774,0.3785
7775,0.2789
7776,0.1395
7777,-0.0797
7778,-0.2789
7779,-0.4383
7780,-0.2988
7781,-0.1594
7782,-0.1195
7783,-0.1395
7784,-0.0996
7785,-0.0797
7786,-0.0797
7787,-0.1594
7788,-0.2590
7789,-0.2391
7790,-0.3387
7791,-0.2590
7792,-0.3387
7793,-0.3984
7794,-0.3785
7795,-0.2789
7796,-0.0996
7797,0.0000
7798,0.0996
7799,0.0797
7800,0.0000
7801,-0.1992
7802,-0.3387
7803,-0.3387
7804,-0.3785
7805,-0.3387
7806,-0.3785
7807,-0.2590
7808,-0.1594
7809,-0.0996
7810,-0.0598
7811,0.0199
7812,0.0598
7813,0.1195
7814,0.1195
7815,0.1195
7816,0.0996
7817,0.0598
7818,0.0598
7819,0.0000
7820,0.0398
7821,0.0598
7822,0.2391
7823,0.4582
7824,0.6574
7825,0.6973
7826,0.6773
7827,0.3984
7828,0.0398
7829,-0.3188
7830,-0.4781
7831,-0.6375
7832,-0.4781
7833,-0.3586
7834,-0.1594
7835,-0.0398
7836,-0.0996
7837,-0.1195
7838,-0.1793
7839,-0.1793
7840,-0.0996
7841,0.0598
7842,0.1395
7843,0.1594
7844,0.1793
7845,0.1594
7846,0.1195
7847,0.1793
7848,0.2191
7849,0.1793
7850,0.0598
7851,0.0199
7852,-0.0398
7853,-0.2191
7854,-0.4184
7855,-0.3387
7856,-0.3387
7857,-0.2391
7858,-0.1793
7859,-0.1195
7860,-0.0996
7861,-0.0398
7862,-0.0398
7863,-0.0797
7864,0.0199
7865,0.0398
7866,0.0598
7867,0.0797
7868,0.1594
7869,0.2988
7870,0.4383
7871,0.4383
7872,0.2988
7873,0.0996
7874,-0.1395
7875,-0.3984
7876,-0.6574
7877,-0.8566
7878,-0.6973
7879,-0.4582
7880,-0.1594
7881,0.0199
7882,0.0797
7883,0.2191
7884,0.2988
7885,0.3188
7886,0.2988
7887,0.0996
7888,-0.0598
7889,-0.1594
7890,-0.2391
7891,-0.1793
7892,-0.1793
7893,-0.1793
7894,-0.0398
7895,0.0000
7896,0.0398
7897,0.0199
7898,0.1195
7899,0.1594
7900,0.2988
7901,0.2988
7902,0.2590
7903,0.1195
7904,0.0000
7905,-0.1195
7906,-0.2391
7907,-0.2789
7908,-0.1594
7909,-0.0797
7910,0.0199
7911,0.2590
7912,0.3586
7913,0.3785
7914,0.3785
7915,0.3387
7916,0.3586
7917,0.3586
7918,0.3387
7919,0.2789
7920,0.1594
7921,0.0598
7922,-0.0398
7923,-0.1195
7924,-0.0398
7925,0.1395
7926,0.0996
7927,0.1594
7928,0.1793
7929,0.1594
7930,0.1395
7931,0.1594
7932,0.3188
7933,0.1594
7934,0.0000
7935,-0.0996
7936,-0.1793
7937,-0.3188
7938,-0.4781
7939,-0.6176
7940,-0.3785
7941,-0.0598
7942,0.0398
7943,0.0797
7944,0.1395
7945,0.2590
7946,0.2988
7947,0.2590
7948,0.1992
7949,0.1992
7950,0.1594
7951,0.1793
7952,0.2191
7953,0.2988
7954,0.3188
7955,0.3188
7956,0.2391
7957,0.0797
7958,-0.0199
7959,-0.0199
7960,0.0199
7961,0.0797
7962,0.1594
7963,0.3785
7964,0.4383
7965,0.2789
7966,0.3188
7967,0.2191
7968,-0.0996
7969,-0.4781
7970,-0.8168
7971,-0.8566
7972,-0.6375
7973,-0.2590
7974,0.0996
7975,0.2988
7976,0.4383
7977,0.5379
7978,0.4980
7979,0.3387
7980,0.0996
7981,0.0398
7982,-0.1793
7983,-0.3586
7984,-0.5578
7985,-0.6375
7986,-0.4582
7987,-0.3586
7988,-0.2590
7989,-0.1992
7990,-0.0996
7991,-0.0398
7992,0.0199
7993,0.1594
7994,0.1793
7995,0.1594
7996,0.0398
7997,-0.0598
7998,-0.1793
7999,-0.2789
8000,-0.1594
8001,-0.0199
8002,0.1594
8003,0.2590
8004,0.3387
8005,0.3984
8006,0.3188
8007,0.1793
8008,-0.0398
8009,-0.1195
8010,-0.2391
8011,-0.3586
8012,-0.2988
8013,-0.1992
8014,-0.2191
8015,-0.1395
8016,-0.1992
8017,-0.1992
8018,-0.1195
8019,-0.0398
8020,0.0000
8021,0.0199
8022,0.0000
8023,0.0000
8024,-0.0598
8025,-0.0996
8026,-0.1992
8027,-0.2191
8028,-0.3188
8029,-0.2988
8030,-0.3387
8031,-0.3188
8032,-0.4980
8033,-0.4980
8034,-0.3785
8035,-0.2988
8036,-0.2590
8037,-0.0598
8038,0.0398
8039,0.1195
8040,0.2590
8041,0.3586
8042,0.3586
8043,0.3785
8044,0.2590
8045,0.0398
8046,-0.1992
8047,-0.5379
8048,-0.6973
8049,-0.5578
8050,-0.3387
8051,-0.1793
8052,-0.0199
8053,0.1793
8054,0.2789
8055,0.3984
8056,0.3785
8057,0.2191
8058,-0.1395
8059,-0.5578
8060,-0.7770
8061,-0.8965
8062,-0.7371
8063,-0.5777
8064,-0.2789
8065,-0.1395
8066,-0.0199
8067,-0.0199
8068,0.0598
8069,0.0797
8070,0.0199
8071,-0.0199
8072,0.0000
8073,0.1195
8074,0.0398
8075,0.1395
8076,0.1992
8077,0.0797
8078,0.0398
8079,-0.0598
8080,-0.2391
8081,-0.2191
8082,-0.0996
8083,0.0199
8084,0.1594
8085,0.1594
8086,0.3387
8087,0.4582
8088,0.4184
8089,0.3188
8090,0.1594
8091,-0.1195
8092,-0.3188
8093,-0.4184
8094,-0.5777
8095,-0.4980
8096,-0.3387
8097,-0.1793
8098,-0.2590
8099,-0.4383
8100,-0.5578
8101,-0.5977
8102,-0.5379
8103,-0.3785
8104,-0.2590
8105,-0.3188
8106,-0.3785
8107,-0.2988
8108,-0.1594
8109,-0.1395
8110,-0.0598
8111,-0.0797
8112,0.0000
8113,0.0199
8114,-0.0199
8115,-0.0398
8116,-0.1793
8117,-0.2191
8118,-0.1395
8119,-0.0797
8120,0.0398
8121,0.0996
8122,0.0199
8123,-0.0598
8124,-0.2590
8125,-0.4383
8126,-0.3785
8127,-0.3586
8128,-0.1793
8129,-0.0398
8130,0.0996
8131,0.1395
8132,0.1793
8133,0.2191
8134,0.1594
8135,0.1793
8136,0.0797
8137,0.0598
8138,0.1992
8139,0.2590
8140,0.2191
8141,0.0598
8142,-0.0398
8143,-0.0797
8144,-0.1395
8145,-0.0996
8146,-0.0797
8147,0.0598
8148,0.2391
8149,0.2391
8150,0.1594
8151,0.0199
8152,-0.1992
8153,-0.5578
8154,-0.5777
8155,-0.2988
8156,0.0398
8157,0.1594
8158,0.2789
8159,0.2391
8160,0.3188
8161,0.4184
8162,0.3387
8163,0.3188
8164,0.2191
8165,0.1992
8166,0.0199
8167,-0.2391
8168,-0.2988
8169,-0.2391
8170,-0.1594
8171,-0.0398
8172,0.0199
8173,0.1395
8174,0.2391
8175,0.2191
8176,0.3586
8177,0.3387
8178,0.2191
8179,0.0797
8180,-0.0398
8181,-0.1195
8182,-0.1395
8183,0.0797
8184,0.3984
8185,0.4582
8186,0.4781
8187,0.3188
8188,0.0996
8189,-0.1395
8190,-0.2789
8191,-0.4383
8192,-0.4582
8193,-0.4781
8194,-0.2391
8195,-0.1594
8196,-0.1594
8197,-0.0797
8198,0.0199
8199,0.0398
8200,0.1195
8201,0.1594
8202,0.2391
8203,0.3188
8204,0.2988
8205,0.3984
8206,0.3984
8207,0.2391
8208,0.1195
8209,0.1195
8210,0.1395
8211,0.1195
8212,0.1195
8213,0.0398
8214,-0.1195
8215,-0.1395
8216,-0.1395
8217,-0.1594
8218,-0.0199
8219,0.2590
8220,0.3984
8221,0.4383
8222,0.3188
8223,0.3387
8224,0.4184
8225,0.1992
8226,0.0199
8227,-0.2988
8228,-0.4582
8229,-0.6574
8230,-0.8168
8231,-0.6973
8232,-0.3785
8233,0.0199
8234,0.2988
8235,0.3785
8236,0.4781
8237,0.5379
8238,0.5379
8239,0.2191
8240,-0.1793
8241,-0.3586
8242,-0.4383
8243,-0.4980
8244,-0.4184
8245,-0.2590
8246,0.0598
8247,0.2988
8248,0.3387
8249,0.3785
8250,0.2789
8251,0.2789
8252,0.1793
8253,0.0398
8254,-0.0996
8255,-0.0398
8256,0.0598
8257,0.0996
8258,0.1395
8259,0.1594
8260,0.2191
8261,0.2191
8262,0.2391
8263,0.3586
8264,0.3586
8265,0.3984
8266,0.3984
8267,0.3785
8268,0.3785
8269,0.2988
8270,0.2191
8271,0.1195
8272,0.0000
8273,-0.0598
8274,-0.1195
8275,-0.1395
8276,0.0000
8277,-0.0398
8278,0.0199
8279,0.0797
8280,0.1395
8281,0.0996
8282,0.0797
8283,0.0797
8284,0.0996
8285,0.1395
8286,0.2789
8287,0.3387
8288,0.3586
8289,0.3188
8290,0.1992
8291,0.1195
8292,0.0000
8293,-0.1594
8294,-0.1992
8295,-0.1195
8296,-0.1992
8297,-0.1395
8298,-0.1195
8299,0.0199
8300,-0.0398
8301,-0.1992
8302,-0.2391
8303,-0.2988
8304,-0.2590
8305,-0.0996
8306,-0.1395
8307,-0.1992
8308,-0.1793
8309,-0.0996
8310,0.0199
8311,0.1992
8312,0.3586
8313,0.3387
8314,0.3387
8315,0.1594
8316,0.0199
8317,-0.1395
8318,-0.3188
8319,-0.2789
8320,-0.3188
8321,-0.3387
8322,-0.2191
8323,-0.0996
8324,0.0598
8325,0.0996
8326,0.1195
8327,0.0996
8328,0.1594
8329,0.0996
8330,0.0199
8331,0.0000
8332,0.0000
8333,0.0199
8334,-0.0797
8335,-0.0199
8336,0.0000
8337,-0.1594
8338,-0.2789
8339,-0.4781
8340,-0.5578
8341,-0.4582
8342,-0.2590
8343,-0.2191
8344,-0.2191
8345,-0.2191
8346,0.0199
8347,0.0996
8348,0.1992
8349,0.2590
8350,0.1594
8351,0.0000
8352,-0.2191
8353,-0.1594
8354,-0.2789
8355,-0.2988
8356,-0.2391
8357,-0.1992
8358,-0.1395
8359,-0.0996
8360,-0.1594
8361,-0.1992
8362,-0.2391
8363,-0.4582
8364,-0.6176
8365,-0.7371
8366,-0.5379
8367,-0.2988
8368,-0.0996
8369,0.0398
8370,0.0797
8371,0.1793
8372,0.2391
8373,0.3387
8374,0.4184
8375,0.3387
8376,0.3387
8377,0.2391
8378,0.0797
8379,-0.1992
8380,-0.3387
8381,-0.3387
8382,-0.2988
8383,-0.1195
8384,-0.0797
8385,-0.1395
8386,-0.2191
8387,-0.3387
8388,-0.3387
8389,-0.1594
8390,-0.0797
8391,-0.0398
8392,0.0199
8393,0.1195
8394,0.1594
8395,0.2391
8396,0.2590
8397,0.3188
8398,0.3586
8399,0.2988
8400,0.3387
8401,0.3984
8402,0.3586
8403,0.2391
8404,0.1594
8405,-0.0199
8406,-0.1395
8407,-0.1195
8408,-0.0199
8409,-0.0398
8410,-0.1594
8411,-0.2191
8412,-0.2988
8413,-0.3188
8414,-0.1992
8415,-0.0797
8416,-0.0797
8417,-0.0199
8418,0.0199
8419,0.2789
8420,0.4582
8421,0.4582
8422,0.3188
8423,0.0996
8424,-0.0598
8425,-0.2191
8426,-0.3586
8427,-0.4781
8428,-0.4383
8429,-0.3984
8430,-0.3586
8431,-0.2988
8432,-0.1195
8433,0.1195
8434,0.2789
8435,0.3785
8436,0.3984
8437,0.4383
8438,0.4980
8439,0.4980
8440,0.4184
8441,0.2988
8442,0.0996
8443,0.0000
8444,-0.1395
8445,-0.2590
8446,-0.3586
8447,-0.3586
8448,-0.0398
8449,0.0398
8450,0.0000
8451,-0.0398
8452,-0.1992
8453,-0.2391
8454,-0.1992
8455,-0.0199
8456,0.0398
8457,0.0199
8458,-0.1195
8459,-0.1594
8460,-0.2988
8461,-0.2391
8462,-0.2191
8463,-0.1195
8464,-0.0398
8465,0.1793
8466,0.2988
8467,0.3387
8468,0.2789
8469,0.2590
8470,0.1793
8471,0.0598
8472,0.0398
8473,-0.0598
8474,-0.1992
8475,-0.1992
8476,-0.2391
8477,-0.3586
8478,-0.5379
8479,-0.4184
8480,-0.1992
8481,-0.0398
8482,0.0398
8483,0.1395
8484,0.0996
8485,0.1195
8486,0.0398
8487,0.0398
8488,0.0797
8489,0.1195
8490,0.1793
8491,0.2391
8492,0.2191
8493,0.2191
8494,0.2590
8495,0.1195
8496,0.0996
8497,0.0598
8498,0.0199
8499,0.0797
8500,0.0797
8501,0.0797
8502,0.1594
8503,0.2988
8504,0.4582
8505,0.4980
8506,0.3785
8507,0.3188
8508,0.3387
8509,0.3586
8510,0.1793
8511,-0.0598
8512,-0.2391
8513,-0.2988
8514,-0.2988
8515,0.0797
8516,0.2988
8517,0.4184
8518,0.4781
8519,0.3586
8520,0.1195
8521,-0.1793
8522,-0.5180
8523,-0.7371
8524,-0.8168
8525,-0.7172
8526,-0.4980
8527,-0.2191
8528,0.0398
8529,0.1793
8530,0.2789
8531,0.2391
8532,0.1793
8533,0.2191
8534,0.2988
8535,0.2789
8536,0.2191
8537,0.1793
8538,0.2191
8539,0.1594
8540,0.0598
8541,0.0598
8542,0.1195
8543,0.0996
8544,-0.0398
8545,-0.3586
8546,-0.3387
8547,-0.3188
8548,-0.0598
8549,0.1195
8550,0.2789
8551,0.6176
8552,0.6773
8553,0.6973
8554,0.4781
8555,0.1793
8556,-0.1594
8557,-0.3785
8558,-0.5180
8559,-0.6375
8560,-0.5578
8561,-0.4980
8562,-0.4383
8563,-0.1395
8564,0.0199
8565,0.0797
8566,0.1793
8567,0.1793
8568,0.2590
8569,0.2789
8570,0.1793
8571,0.0000
8572,-0.1594
8573,-0.2789
8574,-0.1793
8575,-0.1992
8576,-0.1395
8577,-0.0199
8578,0.0000
8579,0.0199
8580,0.1195
8581,0.1395
8582,0.0598
8583,0.0996
8584,0.0000
8585,0.0000
8586,0.0398
8587,0.0797
8588,0.0398
8589,0.1395
8590,0.2988
8591,0.2988
8592,0.1992
8593,-0.0996
8594,-0.4781
8595,-1.0758
8596,-1.4543
8597,-1.4344
8598,-1.0957
8599,-0.6375
8600,-0.3188
8601,-0.1594
8602,-0.1395
8603,-0.0199
8604,0.0000
8605,0.0199
8606,0.0398
8607,-0.0398
8608,0.0000
8609,0.0199
8610,0.0199
8611,-0.0598
8612,-0.1793
8613,-0.3984
8614,-0.4582
8615,-0.3188
8616,-0.0797
8617,0.1793
8618,0.2590
8619,0.2988
8620,0.3586
8621,0.3188
8622,0.0996
8623,-0.0199
8624,-0.1594
8625,-0.3188
8626,-0.6176
8627,-0.5777
8628,-0.4383
8629,-0.2789
8630,-0.2391
8631,-0.1195
8632,-0.0199
8633,0.1594
8634,0.1992
8635,0.1992
8636,0.0996
8637,0.0199
8638,0.0199
8639,-0.1594
8640,-0.2590
8641,-0.2391
8642,-0.0797
8643,0.0797
8644,0.1793
8645,0.2590
8646,0.2191
8647,0.1793
8648,0.1992
8649,0.2191
8650,0.2191
8651,0.1195
8652,0.0000
8653,-0.0996
8654,-0.1793
8655,-0.3984
8656,-0.6574
8657,-0.7570
8658,-0.4582
8659,-0.1195
8660,0.1195
8661,0.2391
8662,0.2391
8663,0.2789
8664,0.1594
8665,0.0598
8666,-0.0797
8667,-0.2191
8668,-0.2391
8669,-0.2590
8670,-0.1195
8671,0.0000
8672,0.1594
8673,0.1793
8674,0.1395
8675,0.1195
8676,0.0797
8677,0.0199
8678,-0.1793
8679,-0.2789
8680,-0.2191
8681,-0.1395
8682,-0.0199
8683,0.1594
8684,0.2191
8685,0.2191
8686,0.2590
8687,0.2590
8688,0.3188
8689,0.2391
8690,0.2391
8691,0.1395
8692,0.0598
8693,0.0598
8694,0.0598
8695,0.1195
8696,0.2391
8697,0.2391
8698,0.1992
8699,0.0996
8700,-0.0598
8701,-0.1395
8702,-0.0199
8703,0.2391
8704,0.2988
8705,0.2988
8706,0.3188
8707,0.1395
8708,-0.0199
8709,-0.0797
8710,-0.2191
8711,-0.1594
8712,-0.1992
8713,-0.2789
8714,-0.2590
8715,-0.1992
8716,0.0598
8717,0.2191
8718,0.3188
8719,0.3188
8720,0.2590
8721,0.1594
8722,0.1195
8723,0.0797
8724,0.0797
8725,0.0996
8726,0.1793
8727,0.2391
8728,0.2988
8729,0.3188
8730,0.2391
8731,0.1195
8732,-0.0199
8733,-0.1195
8734,-0.0598
8735,0.0000
8736,-0.0199
8737,0.0398
8738,0.1195
8739,0.0797
8740,0.1195
8741,0.0797
8742,0.0797
8743,0.1992
8744,0.2191
8745,0.1594
8746,0.0797
8747,-0.0996
8748,-0.1992
8749,-0.1594
8750,-0.0398
8751,0.0398
8752,0.2590
8753,0.2391
8754,0.2590
8755,0.1793
8756,0.0797
8757,-0.0598
8758,-0.1793
8759,-0.2191
8760,-0.1395
8761,-0.1395
8762,-0.2191
8763,-0.1992
8764,-0.1793
8765,-0.1793
8766,0.0000
8767,0.0000
8768,-0.0598
8769,-0.0797
8770,-0.2391
8771,-0.4582
8772,-0.7570
8773,-0.8168
8774,-0.5777
8775,-0.1992
8776,0.0199
8777,0.0598
8778,0.1594
8779,0.1594
8780,0.2391
8781,0.2789
8782,0.2988
8783,0.3387
8784,0.2590
8785,0.1594
8786,0.0598
8787,0.0199
8788,-0.0199
8789,-0.1992
8790,-0.4781
8791,-0.6973
8792,-0.5977
8793,-0.3984
8794,-0.0797
8795,0.1195
8796,0.2789
8797,0.3785
8798,0.3387
8799,0.1594
8800,-0.0797
8801,-0.1793
8802,-0.4980
8803,-0.5578
8804,-0.3785
8805,-0.1395
8806,0.0797
8807,0.1992
8808,0.2391
8809,0.3586
8810,0.4184
8811,0.3984
8812,0.2988
8813,0.1793
8814,0.0996
8815,-0.0199
8816,-0.0996
8817,-0.0797
8818,-0.0797
8819,-0.0797
8820,0.0398
8821,0.1395
8822,0.1793
8823,0.2191
8824,0.1793
8825,0.1793
8826,0.0996
8827,0.0398
8828,0.0797
8829,0.0996
8830,0.2191
8831,0.3188
8832,0.2988
8833,0.1594
8834,-0.0398
8835,-0.3387
8836,-0.6176
8837,-0.6574
8838,-0.4781
8839,-0.4184
8840,-0.2590
8841,-0.1195
8842,0.0000
8843,0.0996
8844,0.0996
8845,0.0398
8846,0.0398
8847,0.0598
8848,0.0797
8849,0.0398
8850,0.1992
8851,0.2988
8852,0.2590
8853,0.1594
8854,0.1395
8855,0.0000
8856,-0.1793
8857,-0.3387
8858,-0.1395
8859,0.0797
8860,0.1195
8861,0.0000
8862,-0.2191
8863,-0.2988
8864,-0.3984
8865,-0.4383
8866,-0.3188
8867,-0.2789
8868,-0.3387
8869,-0.3387
8870,-0.2391
8871,-0.0996
8872,0.0199
8873,0.1793
8874,0.3387
8875,0.3586
8876,0.3188
8877,0.2590
8878,0.1793
8879,0.0797
8880,0.0000
8881,0.0000
8882,-0.0398
8883,-0.1793
8884,-0.4184
8885,-0.6375
8886,-0.5777
8887,-0.3387
8888,-0.0797
8889,0.0797
8890,0.1992
8891,0.2789
8892,0.3387
8893,0.4383
8894,0.5379
8895,0.5777
8896,0.4980
8897,0.3984
8898,0.1793
8899,-0.1395
8900,-0.4184
8901,-0.6375
8902,-0.6375
8903,-0.5777
8904,-0.3984
8905,-0.1195
8906,0.0797
8907,0.2391
8908,0.2391
8909,0.1992
8910,0.1992
8911,0.1594
8912,0.0598
8913,0.1195
8914,0.1195
8915,0.0199
8916,-0.1594
8917,-0.2191
8918,-0.1395
8919,-0.0598
8920,0.0398
8921,0.0598
8922,0.0398
8923,0.1992
8924,0.3785
8925,0.5180
8926,0.4184
8927,0.2590
8928,0.0398
8929,-0.1793
8930,-0.3984
8931,-0.5977
8932,-0.7172
8933,-0.6176
8934,-0.2988
8935,-0.0598
8936,0.0199
8937,0.0996
8938,0.0598
8939,-0.0199
8940,-0.1395
8941,-0.0598
8942,-0.0598
8943,-0.0398
8944,-0.0398
8945,0.0000
8946,0.0797
8947,0.1195
8948,0.1793
8949,0.2988
8950,0.2988
8951,0.3387
8952,0.1992
8953,0.0996
8954,0.0598
8955,0.0000
8956,-0.1992
8957,-0.4184
8958,-0.3785
8959,-0.2789
8960,-0.1992
8961,-0.0996
8962,-0.0797
8963,0.0199
8964,0.1395
8965,0.2191
8966,0.2988
8967,0.4184
8968,0.3586
8969,0.2391
8970,-0.0199
8971,-0.1992
8972,-0.2789
8973,-0.3586
8974,-0.4781
8975,-0.2988
8976,-0.0598
8977,0.0797
8978,0.2191
8979,0.2988
8980,0.2988
8981,0.2391
8982,0.0199
8983,-0.0398
8984,-0.2789
8985,-0.2191
8986,-0.1395
8987,-0.1594
8988,-0.0797
8989,0.0000
8990,0.0598
8991,0.0996
8992,0.0797
8993,0.0797
8994,0.0199
8995,-0.0598
8996,-0.2191
8997,-0.2191
8998,-0.1594
8999,-0.0996
9000,-0.0199
9001,0.0996
9002,0.1992
9003,0.2191
9004,0.2391
9005,0.1992
9006,0.2391
9007,0.0996
9008,0.0199
9009,-0.2191
9010,-0.3984
9011,-0.4980
9012,-0.3984
9013,-0.4582
9014,-0.4980
9015,-0.3785
9016,-0.4184
9017,-0.3387
9018,-0.2191
9019,-0.2590
9020,-0.2391
9021,-0.1594
9022,0.0000
9023,0.0398
9024,0.1594
9025,0.1793
9026,0.2191
9027,0.2391
9028,0.2988
9029,0.3387
9030,0.3984
9031,0.4184
9032,0.3387
9033,0.2789
9034,0.2191
9035,0.2191
9036,0.1992
9037,0.0398
9038,0.0000
9039,-0.0199
9040,0.0000
9041,0.0598
9042,0.0199
9043,0.0797
9044,0.0996
9045,0.0797
9046,0.0598
9047,0.0000
9048,-0.0996
9049,-0.2191
9050,-0.1793
9051,-0.0199
9052,0.0797
9053,0.2590
9054,0.3586
9055,0.4184
9056,0.4383
9057,0.3785
9058,0.3586
9059,0.1594
9060,0.0598
9061,-0.0199
9062,-0.2191
9063,-0.2391
9064,-0.2391
9065,0.0598
9066,0.2391
9067,0.3984
9068,0.5379
9069,0.4980
9070,0.4781
9071,0.3785
9072,0.0797
9073,-0.2789
9074,-0.3984
9075,-0.4781
9076,-0.5578
9077,-0.3785
9078,-0.0398
9079,0.0398
9080,0.1992
9081,0.1594
9082,0.1195
9083,0.0398
9084,-0.0398
9085,-0.0598
9086,0.0000
9087,0.0000
9088,0.0398
9089,0.0000
9090,-0.0398
9091,-0.0199
9092,0.1793
9093,0.2391
9094,0.2789
9095,0.3984
9096,0.3586
9097,0.2590
9098,0.1594
9099,-0.0398
9100,-0.0996
9101,-0.1395
9102,-0.0199
9103,0.0996
9104,0.0598
9105,0.0000
9106,0.0199
9107,-0.1195
9108,-0.1594
9109,-0.1594
9110,-0.1395
9111,-0.0598
9112,-0.0199
9113,0.1793
9114,0.3586
9115,0.5777
9116,0.5977
9117,0.4781
9118,0.2391
9119,-0.0996
9120,-0.5379
9121,-0.7969
9122,-0.8766
9123,-0.8965
9124,-0.9363
9125,-0.6973
9126,-0.4781
9127,-0.2391
9128,-0.0598
9129,-0.0797
9130,-0.0797
9131,0.0598
9132,0.0996
9133,0.1395
9134,-0.0199
9135,-0.1195
9136,-0.1395
9137,-0.2590
9138,-0.2590
9139,-0.1793
9140,-0.1793
9141,-0.1594
9142,-0.0797
9143,-0.1195
9144,-0.1395
9145,-0.0797
9146,0.0199
9147,0.0996
9148,0.1195
9149,0.0797
9150,0.2191
9151,0.3387
9152,0.4980
9153,0.5977
9154,0.7172
9155,0.6574
9156,0.4184
9157,0.1195
9158,-0.1992
9159,-0.3785
9160,-0.4184
9161,-0.6574
9162,-0.5379
9163,-0.2391
9164,-0.0199
9165,0.1395
9166,0.0996
9167,0.0797
9168,0.0598
9169,0.0797
9170,0.0598
9171,0.1195
9172,0.1992
9173,0.3387
9174,0.3586
9175,0.2590
9176,0.1793
9177,0.0996
9178,0.1195
9179,-0.0398
9180,-0.0598
9181,0.0598
9182,0.1992
9183,0.2391
9184,0.1793
9185,0.0398
9186,-0.0398
9187,0.0000
9188,-0.0199
9189,-0.0199
9190,0.0398
9191,0.0797
9192,0.1195
9193,0.1395
9194,0.0398
9195,0.0398
9196,-0.0199
9197,-0.1594
9198,-0.0797
9199,0.0398
9200,0.1195
9201,0.2191
9202,0.1793
9203,0.1594
9204,-0.0398
9205,-0.3387
9206,-0.5977
9207,-0.7371
9208,-0.7172
9209,-0.5777
9210,-0.4781
9211,-0.3586
9212,-0.2988
9213,-0.2191
9214,-0.2391
9215,-0.0598
9216,0.1195
9217,0.2789
9218,0.4383
9219,0.3984
9220,0.3586
9221,0.2789
9222,0.1195
9223,-0.0996
9224,-0.2789
9225,-0.3387
9226,-0.2391
9227,-0.0598
9228,0.0598
9229,0.0996
9230,0.0598
9231,0.0398
9232,0.0598
9233,0.2191
9234,0.3586
9235,0.4980
9236,0.5578
9237,0.4781
9238,0.3188
9239,0.2590
9240,0.1992
9241,0.1793
9242,0.0797
9243,0.0199
9244,0.0797
9245,0.1195
9246,0.0996
9247,-0.0199
9248,-0.0598
9249,-0.0797
9250,-0.2789
9251,-0.3387
9252,-0.1594
9253,0.0598
9254,0.2191
9255,0.2391
9256,0.1793
9257,0.1594
9258,0.1594
9259,0.1395
9260,0.0996
9261,0.2191
9262,0.1793
9263,0.1395
9264,0.0996
9265,0.0398
9266,0.0000
9267,-0.0797
9268,-0.0398
9269,-0.0797
9270,0.0199
9271,0.0996
9272,0.1793
9273,0.1594
9274,0.0598
9275,0.0996
9276,0.1195
9277,0.0996
9278,0.1195
9279,0.0598
9280,-0.0598
9281,0.0000
9282,-0.0199
9283,0.0000
9284,0.0000
9285,-0.0199
9286,-0.0398
9287,-0.0598
9288,-0.0199
9289,0.0000
9290,0.0598
9291,0.0996
9292,0.1793
9293,0.2988
9294,0.2391
9295,0.1793
9296,0.1992
9297,0.1195
9298,0.0398
9299,0.0199
9300,0.1195
9301,0.1195
9302,0.1594
9303,0.1195
9304,0.1195
9305,0.0398
9306,0.0000
9307,-0.0598
9308,-0.0598
9309,-0.0199
9310,-0.0797
9311,-0.0598
9312,-0.0398
9313,-0.1395
9314,-0.0598
9315,0.0000
9316,-0.0598
9317,-0.0797
9318,-0.0398
9319,-0.0199
9320,0.0199
9321,0.0797
9322,0.0000
9323,0.0199
9324,-0.0398
9325,-0.0398
9326,0.0797
9327,-0.0598
9328,-0.0598
9329,-0.0199
9330,-0.0598
9331,-0.0996
9332,-0.1395
9333,-0.1395
9334,-0.1195
9335,-0.1195
9336,-0.1395
9337,-0.1395
9338,-0.0797
9339,-0.0996
9340,-0.2988
9341,-0.3387
9342,-0.2590
9343,-0.1395
9344,0.0199
9345,0.0398
9346,0.0797
9347,0.0598
9348,-0.0598
9349,-0.1992
9350,-0.2988
9351,-0.1594
9352,-0.1395
9353,-0.1195
9354,-0.1195
9355,-0.1992
9356,-0.3188
9357,-0.3785
9358,-0.2988
9359,-0.3188
9360,-0.1395
9361,-0.0398
9362,0.1195
9363,0.2391
9364,0.4781
9365,0.6375
9366,0.6773
9367,0.4980
9368,0.3188
9369,-0.0598
9370,-0.4582
9371,-0.7770
9372,-1.0359
9373,-1.0359
9374,-0.8965
9375,-0.6375
9376,-0.4383
9377,-0.1793
9378,0.0797
9379,0.2391
9380,0.2988
9381,0.3188
9382,0.2988
9383,0.1195
9384,-0.0996
9385,-0.2191
9386,-0.2191
9387,-0.2391
9388,-0.1793
9389,0.0000
9390,0.0797
9391,0.2391
9392,0.2789
9393,0.2590
9394,0.1992
9395,0.1793
9396,0.1395
9397,0.0797
9398,-0.0996
9399,-0.0398
9400,0.0797
9401,0.1992
9402,0.1793
9403,0.0598
9404,-0.1195
9405,-0.1594
9406,-0.1395
9407,-0.1992
9408,-0.1594
9409,-0.1594
9410,-0.0996
9411,0.0000
9412,0.0000
9413,-0.0398
9414,-0.1195
9415,-0.2391
9416,-0.1992
9417,-0.0996
9418,-0.0996
9419,-0.0199
9420,0.0398
9421,0.0398
9422,0.0598
9423,0.1594
9424,0.0598
9425,0.0000
9426,-0.0797
9427,-0.2590
9428,-0.4184
9429,-0.5180
9430,-0.4582
9431,-0.2590
9432,-0.1395
9433,-0.0797
9434,-0.1793
9435,-0.1395
9436,-0.1395
9437,-0.0398
9438,0.0598
9439,0.1594
9440,0.2590
9441,0.3387
9442,0.4781
9443,0.6176
9444,0.6375
9445,0.5180
9446,0.3188
9447,0.0996
9448,-0.1594
9449,-0.2988
9450,-0.2988
9451,-0.1793
9452,-0.0398
9453,-0.0398
9454,-0.0398
9455,0.0000
9456,0.1594
9457,0.2191
9458,0.2988
9459,0.2391
9460,0.1793
9461,-0.0398
9462,-0.2391
9463,-0.2789
9464,-0.3586
9465,-0.3785
9466,-0.2988
9467,-0.2789
9468,-0.1594
9469,0.0398
9470,0.1195
9471,0.0797
9472,0.2391
9473,0.2391
9474,0.1793
9475,-0.0398
9476,-0.1793
9477,-0.1594
9478,0.0000
9479,0.0797
9480,0.1992
9481,0.2789
9482,0.3188
9483,0.3586
9484,0.2988
9485,0.2988
9486,0.1594
9487,0.0598
9488,0.0000
9489,-0.0199
9490,0.0797
9491,0.1992
9492,0.2191
9493,0.0996
9494,0.0398
9495,-0.1992
9496,-0.1594
9497,-0.0398
9498,0.2191
9499,0.2988
9500,0.3586
9501,0.3188
9502,0.1793
9503,0.0996
9504,-0.1395
9505,-0.3188
9506,-0.3387
9507,-0.2789
9508,-0.2789
9509,-0.4184
9510,-0.5578
9511,-0.4980
9512,-0.3188
9513,-0.1594
9514,-0.1992
9515,-0.0996
9516,-0.0598
9517,0.0199
9518,0.0598
9519,0.0797
9520,0.1195
9521,0.1992
9522,0.2590
9523,0.3188
9524,0.2988
9525,0.1594
9526,0.0000
9527,-0.1992
9528,-0.3984
9529,-0.6773
9530,-0.8566
9531,-0.8168
9532,-0.5578
9533,-0.2590
9534,0.0000
9535,0.1793
9536,0.1594
9537,0.2191
9538,0.2789
9539,0.3188
9540,0.4582
9541,0.4980
9542,0.4184
9543,0.3984
9544,0.3387
9545,0.2191
9546,0.0199
9547,-0.0199
9548,-0.2590
9549,-0.4781
9550,-0.7172
9551,-0.6773
9552,-0.4582
9553,-0.3586
9554,-0.1395
9555,0.0598
9556,0.2191
9557,0.2789
9558,0.3188
9559,0.1992
9560,0.0996
9561,-0.1395
9562,-0.2789
9563,-0.2391
9564,-0.0199
9565,0.0199
9566,0.1395
9567,0.1594
9568,0.1395
9569,0.0996
9570,0.0598
9571,-0.0996
9572,-0.1594
9573,-0.0996
9574,0.0000
9575,0.0000
9576,-0.0398
9577,-0.0797
9578,0.0199
9579,0.1195
9580,0.1395
9581,0.1195
9582,0.0797
9583,0.1992
9584,0.2391
9585,0.3586
9586,0.4383
9587,0.4383
9588,0.5578
9589,0.4184
9590,0.2391
9591,0.0000
9592,-0.2391
9593,-0.4980
9594,-0.7770
9595,-0.5977
9596,-0.3586
9597,-0.1195
9598,-0.0199
9599,0.0398
9600,0.2391
9601,0.2988
9602,0.3188
9603,0.3785
9604,0.3586
9605,0.3785
9606,0.2590
9607,0.1195
9608,-0.0398
9609,-0.3188
9610,-0.4781
9611,-0.4184
9612,-0.3188
9613,-0.1793
9614,-0.1793
9615,-0.0797
9616,-0.0398
9617,-0.0398
9618,0.0199
9619,0.0598
9620,0.1195
9621,0.1395
9622,0.1395
9623,0.1992
9624,0.2191
9625,0.2590
9626,0.1395
9627,0.0398
9628,0.0398
9629,0.0398
9630,0.0797
9631,0.1594
9632,0.0598
9633,0.0797
9634,-0.0199
9635,-0.1992
9636,-0.4383
9637,-0.6375
9638,-0.5379
9639,-0.4184
9640,-0.3188
9641,-0.0797
9642,0.0797
9643,0.2391
9644,0.2590
9645,0.2590
9646,0.1793
9647,0.0398
9648,-0.1395
9649,-0.2789
9650,-0.3188
9651,-0.2590
9652,-0.1195
9653,-0.0199
9654,-0.0199
9655,0.1992
9656,0.3188
9657,0.2590
9658,0.2988
9659,0.0598
9660,-0.0797
9661,-0.2391
9662,-0.3984
9663,-0.5777
9664,-0.6176
9665,-0.3984
9666,-0.3387
9667,-0.1793
9668,-0.0398
9669,0.0199
9670,0.0996
9671,0.1195
9672,0.1195
9673,0.1992
9674,0.2191
9675,0.1992
9676,0.2191
9677,0.3586
9678,0.4582
9679,0.4184
9680,0.3586
9681,0.3387
9682,0.2191
9683,0.0598
9684,-0.0996
9685,-0.2590
9686,-0.1992
9687,-0.2789
9688,-0.2590
9689,-0.3387
9690,-0.4582
9691,-0.5379
9692,-0.4980
9693,-0.3387
9694,-0.0199
9695,0.1195
9696,0.2391
9697,0.2391
9698,0.2391
9699,0.2391
9700,0.1395
9701,0.0996
9702,0.0000
9703,0.0797
9704,0.0996
9705,0.0000
9706,-0.0398
9707,-0.0199
9708,-0.0797
9709,-0.1195
