Time (s),Kanaal 1
0,-0.1992
1,-0.1195
2,-0.1992
3,-0.1992
4,-0.1395
5,-0.1594
6,-0.0996
7,-0.1395
8,-0.1395
9,-0.0996
10,-0.1594
11,-0.1594
12,-0.0996
13,-0.0996
14,-0.1195
15,-0.0598
16,-0.0996
17,-0.0598
18,-0.0797
19,-0.0797
20,-0.0598
21,-0.0996
22,-0.0797
23,-0.0598
24,-0.0398
25,-0.0598
26,-0.0398
27,0.0199
28,0.0199
29,0.0000
30,0.0199
31,-0.0398
32,-0.1594
33,-0.0398
34,-0.0398
35,-0.0996
36,-0.0996
37,-0.0797
38,-0.0797
39,-0.0996
40,-0.1195
41,-0.1195
42,-0.1793
43,-0.1395
44,-0.1793
45,-0.1395
46,-0.1594
47,-0.1793
48,-0.1195
49,-0.1594
50,-0.1594
51,-0.1395
52,-0.1395
53,-0.1195
54,-0.1594
55,-0.1594
56,-0.1195
57,-0.1395
58,-0.1195
59,-0.0797
60,-0.0199
61,0.0398
62,0.0199
63,0.0000
64,0.0598
65,0.0996
66,0.0797
67,0.1195
68,0.1195
69,0.0996
70,0.1395
71,0.1594
72,0.1195
73,0.1395
74,0.1195
75,0.0996
76,0.1594
77,0.0797
78,0.0797
79,0.0398
80,0.0199
81,-0.0398
82,-0.0398
83,-0.0598
84,-0.0598
85,-0.0598
86,-0.0398
87,-0.0996
88,-0.0598
89,-0.0996
90,-0.1195
91,-0.0598
92,-0.0996
93,-0.0996
94,-0.0797
95,-0.1195
96,-0.0797
97,-0.0797
98,-0.1395
99,-0.1594
100,-0.1793
101,-0.1195
102,-0.1395
103,-0.1395
104,-0.0797
105,-0.0996
106,-0.0398
107,-0.0398
108,0.0000
109,-0.0199
110,0.0000
111,0.0199
112,0.0000
113,0.0000
114,-0.0199
115,-0.0398
116,-0.0398
117,0.0398
118,0.0199
119,0.0000
120,0.0199
121,0.0199
122,0.0199
123,-0.0199
124,-0.0199
125,-0.0398
126,-0.0199
127,0.0199
128,0.0398
129,0.0199
130,0.0199
131,0.0199
132,-0.0199
133,0.0398
134,0.0000
135,-0.0199
136,0.0199
137,0.0398
138,0.0598
139,0.0398
140,0.0398
141,0.0398
142,0.0199
143,0.0797
144,-0.0199
145,0.0000
146,0.0000
147,0.0398
148,0.0000
149,0.0199
150,0.0000
151,-0.0199
152,0.0199
153,0.0000
154,-0.0398
155,-0.0199
156,-0.0398
157,0.0199
158,-0.0398
159,0.0000
160,0.0398
161,0.0598
162,0.0398
163,0.0598
164,0.0398
165,0.0199
166,0.0398
167,0.0000
168,0.0797
169,0.0199
170,0.0000
171,0.0598
172,0.0000
173,0.0199
174,-0.0398
175,0.0000
176,0.0398
177,-0.0199
178,0.0199
179,-0.0199
180,0.0199
181,0.0398
182,0.0199
183,0.0797
184,0.0797
185,0.0398
186,0.0199
187,-0.0398
188,0.0000
189,0.0199
190,0.0000
191,-0.0199
192,0.0000
193,-0.0398
194,-0.0398
195,-0.0797
196,0.0000
197,-0.0797
198,-0.0398
199,-0.0398
200,-0.0199
201,-0.0598
202,-0.0598
203,-0.0598
204,-0.0398
205,-0.0996
206,-0.0797
207,-0.0598
208,-0.0598
209,-0.0996
210,-0.1195
211,-0.0797
212,-0.0996
213,-0.0797
214,-0.0996
215,-0.1195
216,-0.1195
217,-0.0996
218,-0.1395
219,-0.1195
220,-0.0996
221,-0.1395
222,-0.0996
223,-0.1195
224,-0.0797
225,-0.1195
226,-0.0996
227,-0.0598
228,-0.0797
229,-0.0996
230,-0.0797
231,-0.1395
232,-0.1395
233,-0.0797
234,-0.0797
235,-0.0598
236,-0.0797
237,-0.0398
238,-0.0598
239,-0.0398
240,-0.0398
241,-0.0797
242,-0.0398
243,0.0199
244,0.0000
245,-0.0199
246,0.0000
247,0.0199
248,0.0398
249,0.0398
250,0.0398
251,0.0598
252,0.0598
253,0.0797
254,0.0199
255,0.0598
256,0.0398
257,-0.0199
258,0.0199
259,0.0000
260,0.0000
261,0.0000
262,0.0398
263,0.0199
264,0.0398
265,0.0199
266,0.0199
267,-0.0199
268,0.0199
269,-0.0598
270,-0.0199
271,-0.0199
272,-0.0199
273,0.0199
274,0.0199
275,0.0000
276,0.0000
277,-0.0598
278,-0.0199
279,-0.0199
280,-0.0598
281,-0.0598
282,-0.0598
283,-0.0797
284,-0.0199
285,-0.0199
286,-0.0398
287,-0.0199
288,-0.0398
289,-0.0398
290,-0.0398
291,0.0000
292,-0.1195
293,-0.0996
294,-0.0996
295,-0.0797
296,-0.1395
297,-0.1195
298,-0.1195
299,-0.1195
300,-0.0797
301,-0.1195
302,-0.0996
303,-0.0797
304,-0.1195
305,-0.1395
306,-0.0996
307,-0.1195
308,-0.1395
309,-0.1793
310,-0.1793
311,-0.1195
312,-0.1395
313,-0.0996
314,-0.1395
315,-0.1395
316,-0.1195
317,-0.1195
318,-0.0598
319,-0.1195
320,-0.0398
321,-0.0398
322,-0.0797
323,-0.0598
324,-0.0598
325,-0.0598
326,0.0000
327,-0.0398
328,0.0199
329,-0.0398
330,0.0000
331,0.0398
332,0.0398
333,0.0398
334,0.0598
335,0.0398
336,0.0996
337,0.1195
338,0.1195
339,0.0996
340,0.1992
341,0.1594
342,0.1793
343,0.2191
344,0.2391
345,0.1594
346,0.1395
347,0.0996
348,0.1195
349,0.0797
350,0.0199
351,0.0797
352,0.0000
353,0.0398
354,-0.0199
355,-0.0398
356,-0.0996
357,-0.0797
358,-0.0797
359,-0.1195
360,-0.1195
361,-0.1195
362,-0.1195
363,-0.0996
364,-0.1395
365,-0.1793
366,-0.1395
367,-0.1195
368,-0.1195
369,-0.1195
370,-0.1195
371,-0.1195
372,-0.0598
373,-0.0996
374,-0.0996
375,-0.0996
376,-0.0797
377,-0.0598
378,-0.0598
379,-0.0199
380,0.0000
381,0.0199
382,0.0000
383,-0.0398
384,-0.0398
385,-0.0996
386,-0.0598
387,-0.0398
388,-0.0398
389,-0.0598
390,-0.0398
391,-0.0398
392,-0.0797
393,-0.0996
394,-0.0797
395,-0.0797
396,-0.1195
397,-0.1793
398,-0.1793
399,-0.1195
400,-0.1395
401,-0.1395
402,-0.1594
403,-0.1195
404,-0.1395
405,-0.1395
406,-0.1395
407,-0.0797
408,-0.0797
409,-0.1395
410,-0.1793
411,-0.1195
412,-0.1195
413,-0.0996
414,-0.1195
415,-0.1395
416,-0.0996
417,-0.1195
418,-0.0398
419,-0.0797
420,-0.0199
421,-0.0199
422,-0.0398
423,0.0199
424,-0.0199
425,-0.0398
426,-0.0398
427,-0.0199
428,0.0398
429,0.0000
430,0.0000
431,-0.0199
432,0.0598
433,0.0199
434,0.0199
435,0.0199
436,0.0996
437,0.0398
438,0.0598
439,0.0398
440,0.0000
441,-0.0199
442,0.0000
443,0.0398
444,0.0199
445,0.0398
446,0.0199
447,0.0398
448,0.0398
449,0.0598
450,0.0199
451,0.0398
452,0.0598
453,0.0398
454,0.0199
455,0.0598
456,0.0398
457,0.0797
458,0.0797
459,0.0398
460,0.0797
461,0.1195
462,0.1195
463,0.1395
464,0.1594
465,0.1594
466,0.0797
467,0.1594
468,0.1594
469,0.1594
470,0.1395
471,0.1594
472,0.1793
473,0.1992
474,0.1793
475,0.1594
476,0.1992
477,0.1992
478,0.1793
479,0.2191
480,0.1992
481,0.2391
482,0.1793
483,0.1793
484,0.1195
485,0.2590
486,0.1793
487,0.1594
488,0.1594
489,0.1395
490,0.1793
491,0.1594
492,0.1992
493,0.1793
494,0.1594
495,0.1793
496,0.1395
497,0.1195
498,0.1594
499,0.1793
500,0.1395
501,0.1195
502,0.1395
503,0.0797
504,0.0797
505,0.0398
506,0.0797
507,0.0996
508,0.0598
509,0.0996
510,0.0996
511,0.0996
512,0.1395
513,0.1395
514,0.1195
515,0.0996
516,0.1395
517,0.0797
518,0.0996
519,0.0598
520,0.0797
521,0.0398
522,0.0398
523,0.0199
524,0.0199
525,0.0199
526,0.1195
527,0.1395
528,0.0797
529,0.1395
530,0.1395
531,0.1594
532,0.1992
533,0.1594
534,0.1992
535,0.1594
536,0.1793
537,0.1195
538,0.1395
539,0.1195
540,0.1594
541,0.1395
542,0.1594
543,0.1992
544,0.1395
545,0.1395
546,0.1594
547,0.1195
548,0.1793
549,0.1793
550,0.1793
551,0.2191
552,0.2191
553,0.2590
554,0.1594
555,0.1793
556,0.1594
557,0.1793
558,0.1992
559,0.1793
560,0.1793
561,0.2391
562,0.1793
563,0.2590
564,0.2191
565,0.2191
566,0.2789
567,0.2590
568,0.2789
569,0.3586
570,0.3188
571,0.3188
572,0.3188
573,0.3188
574,0.3188
575,0.3586
576,0.3586
577,0.2988
578,0.3586
579,0.3188
580,0.2988
581,0.2191
582,0.2590
583,0.1594
584,0.0598
585,0.0598
586,0.0598
587,0.0398
588,0.0797
589,0.0398
590,0.0598
591,0.0398
592,0.0398
593,0.0797
594,0.0398
595,0.0398
596,0.0598
597,0.0797
598,0.0996
599,0.0398
600,0.0398
601,0.0199
602,0.0199
603,0.0199
604,-0.0199
605,0.0000
606,0.0000
607,0.0398
608,0.0000
609,0.0199
610,0.0797
611,0.0598
612,-0.0199
613,0.0199
614,0.0000
615,0.0000
616,-0.0199
617,-0.0598
618,0.0199
619,0.0199
620,0.0398
621,0.0199
622,0.0000
623,-0.0199
624,0.0000
625,0.0000
626,0.0199
627,0.0000
628,0.0398
629,0.0000
630,0.0199
631,-0.0199
632,-0.0199
633,-0.0398
634,-0.0398
635,-0.0398
636,-0.0398
637,-0.0797
638,-0.0398
639,-0.1195
640,-0.0996
641,-0.0398
642,-0.0797
643,-0.0996
644,-0.1594
645,-0.1195
646,-0.0996
647,-0.1195
648,-0.0996
649,-0.1992
650,-0.2191
651,-0.2191
652,-0.1395
653,-0.0797
654,-0.0598
655,0.0000
656,0.0199
657,0.0598
658,0.0398
659,0.0398
660,0.0398
661,-0.0398
662,-0.0398
663,-0.0199
664,-0.0996
665,-0.0598
666,-0.1195
667,-0.1395
668,-0.1195
669,-0.1395
670,-0.2191
671,-0.1594
672,-0.1594
673,-0.0598
674,-0.0797
675,-0.0996
676,-0.0199
677,-0.0598
678,-0.0398
679,-0.0598
680,-0.0398
681,-0.0598
682,-0.0996
683,-0.1195
684,0.0000
685,-0.0598
686,-0.0797
687,-0.0797
688,-0.0598
689,-0.0398
690,-0.0598
691,0.0000
692,-0.0598
693,-0.0598
694,-0.1195
695,-0.0996
696,-0.0797
697,-0.0996
698,-0.1395
699,-0.1793
700,-0.1395
701,-0.0797
702,-0.0996
703,-0.1195
704,-0.0797
705,-0.0996
706,-0.0199
707,-0.0199
708,-0.0398
709,0.0000
710,0.0199
711,-0.0398
712,-0.0398
713,-0.0797
714,-0.0996
715,-0.0996
716,-0.1195
717,-0.0996
718,-0.1395
719,-0.1594
720,-0.2191
721,-0.3188
722,-0.3785
723,-0.3586
724,-0.2988
725,-0.1992
726,-0.1594
727,-0.0996
728,-0.0797
729,-0.0598
730,-0.1195
731,-0.1594
732,-0.0996
733,-0.1395
734,-0.0797
735,-0.0996
736,-0.0797
737,-0.0598
738,-0.0598
739,-0.0797
740,-0.0797
741,-0.0598
742,-0.0996
743,-0.0598
744,-0.1195
745,-0.0996
746,-0.0398
747,-0.0797
748,-0.0598
749,-0.0797
750,-0.0598
751,-0.1195
752,-0.1395
753,-0.0996
754,-0.1395
755,-0.1395
756,-0.1395
757,-0.1195
758,-0.1395
759,-0.2191
760,-0.2391
761,-0.1195
762,-0.0996
763,-0.0598
764,0.0000
765,0.0398
766,0.0398
767,0.0996
768,0.1594
769,0.1793
770,0.1395
771,0.1395
772,0.0797
773,0.0398
774,0.0996
775,0.0199
776,0.0398
777,0.0398
778,0.0996
779,0.0797
780,0.0398
781,0.1195
782,0.0199
783,-0.0996
784,-0.0797
785,-0.0996
786,-0.0996
787,-0.0398
788,-0.0598
789,-0.1195
790,-0.2590
791,-0.3387
792,-0.2391
793,-0.1992
794,-0.0598
795,0.0797
796,0.1195
797,0.0398
798,0.0000
799,-0.0398
800,-0.1195
801,-0.0398
802,0.0199
803,0.0199
804,0.0598
805,0.0797
806,0.0398
807,0.1195
808,0.1395
809,0.1195
810,0.1395
811,0.1395
812,0.1195
813,0.0797
814,0.0797
815,0.0598
816,0.0398
817,-0.0398
818,0.0199
819,0.0797
820,0.0398
821,0.0797
822,-0.0199
823,-0.0797
824,-0.1992
825,-0.2191
826,-0.3188
827,-0.3188
828,-0.2391
829,-0.1992
830,-0.0996
831,-0.0598
832,-0.0797
833,0.0199
834,0.1395
835,0.1992
836,0.2988
837,0.2191
838,-0.0398
839,-0.0996
840,-0.0199
841,0.0398
842,0.0797
843,0.1594
844,0.1594
845,0.2191
846,0.2191
847,0.1992
848,0.1992
849,0.1195
850,0.0797
851,0.0199
852,0.0199
853,-0.0598
854,0.0000
855,0.0398
856,0.1195
857,0.0598
858,-0.1594
859,-0.2590
860,-0.2191
861,-0.1992
862,-0.1395
863,-0.0996
864,-0.0598
865,0.0398
866,0.0199
867,-0.0199
868,0.0996
869,0.1395
870,0.1195
871,0.0797
872,0.0598
873,0.0598
874,-0.0398
875,-0.0199
876,0.0598
877,0.0398
878,-0.0199
879,-0.2590
880,-0.2590
881,-0.1195
882,0.0000
883,0.0996
884,0.0996
885,0.0996
886,0.0598
887,-0.0797
888,-0.3387
889,-0.5578
890,-0.5977
891,-0.8965
892,-0.9563
893,-0.9563
894,-0.9363
895,-0.8965
896,-0.9164
897,-0.8566
898,-0.9563
899,-0.9961
900,-1.0559
901,-1.1156
902,-1.3945
903,-1.4941
904,-1.5340
905,-1.5539
906,-1.4543
907,-1.6336
908,-1.6137
909,-1.6336
910,-1.6535
911,-1.9723
912,-2.0719
913,-2.0719
914,-2.0520
915,-2.0719
916,-1.9922
917,-1.9523
918,-2.0719
919,-2.0520
920,-2.0719
921,-2.0520
922,-2.1316
923,-2.1117
924,-2.1914
925,-2.1914
926,-2.1914
927,-2.2113
928,-2.2512
929,-2.2711
930,-2.3508
931,-2.4902
932,-2.5301
933,-2.4703
934,-2.4703
935,-2.3508
936,-2.2910
937,-2.2313
938,-2.1914
939,-2.1516
940,-2.1316
941,-2.0520
942,-1.9324
943,-1.8328
944,-1.8527
945,-1.8129
946,-1.6934
947,-1.6336
948,-1.5340
949,-1.4145
950,-1.3746
951,-1.2551
952,-1.1555
953,-1.1355
954,-1.0957
955,-0.9164
956,-0.7371
957,-0.6375
958,-0.4184
959,-0.2988
960,-0.2391
961,-0.1793
962,-0.1992
963,-0.2191
964,-0.2191
965,-0.1195
966,0.0199
967,0.1195
968,0.1992
969,0.2391
970,0.2789
971,0.3984
972,0.4781
973,0.5578
974,0.5578
975,0.6574
976,0.6574
977,0.5379
978,0.4383
979,0.5977
980,0.6176
981,0.7371
982,0.8965
983,1.0957
984,1.1156
985,1.2352
986,1.3148
987,1.3746
988,1.2551
989,1.2551
990,1.1555
991,1.1355
992,1.0559
993,1.0359
994,0.9563
995,0.9563
996,1.0359
997,1.1754
998,1.2750
999,1.3746
1000,1.4145
1001,1.2949
1002,1.2352
1003,1.1156
1004,0.9961
1005,1.0359
1006,1.0758
1007,1.0758
1008,1.0957
1009,1.1156
1010,1.1555
1011,1.1953
1012,1.2152
1013,1.2750
1014,1.2750
1015,1.2750
1016,1.2551
1017,1.3148
1018,1.1953
1019,0.9961
1020,1.0359
1021,1.0758
1022,1.0359
1023,1.0957
1024,1.0359
1025,0.8965
1026,0.9363
1027,0.9363
1028,0.7969
1029,0.7570
1030,0.7371
1031,0.8566
1032,0.8168
1033,0.9164
1034,0.8766
1035,0.7172
1036,0.5977
1037,0.4582
1038,0.4383
1039,0.3984
1040,0.4781
1041,0.5578
1042,0.6176
1043,0.7172
1044,0.8168
1045,0.7770
1046,0.6973
1047,0.7172
1048,0.8168
1049,0.8566
1050,0.9164
1051,0.8566
1052,0.7770
1053,0.8965
1054,0.8965
1055,0.8965
1056,0.9563
1057,0.8766
1058,0.8367
1059,0.8168
1060,0.7570
1061,0.6773
1062,0.5977
1063,0.5379
1064,0.4980
1065,0.4582
1066,0.4781
1067,0.5977
1068,0.6176
1069,0.6375
1070,0.6773
1071,0.7371
1072,0.5578
1073,0.5180
1074,0.3188
1075,0.2191
1076,0.2590
1077,0.3586
1078,0.5180
1079,0.6176
1080,0.5977
1081,0.6375
1082,0.6973
1083,0.6773
1084,0.5578
1085,0.5180
1086,0.6176
1087,0.6375
1088,0.5180
1089,0.4980
1090,0.4582
1091,0.3785
1092,0.2590
1093,0.2391
1094,0.2590
1095,0.3586
1096,0.4184
1097,0.3586
1098,0.3387
1099,0.3586
1100,0.3586
1101,0.2789
1102,0.1395
1103,0.1395
1104,0.1195
1105,0.1395
1106,0.0996
1107,0.0996
1108,0.1594
1109,0.1195
1110,0.1195
1111,0.1793
1112,0.1793
1113,0.0598
1114,0.0199
1115,-0.0199
1116,-0.0199
1117,-0.0199
1118,0.0598
1119,0.1395
1120,0.0996
1121,0.0996
1122,0.0797
1123,0.0996
1124,0.0598
1125,0.1195
1126,0.1395
1127,0.0797
1128,0.1793
1129,0.0996
1130,0.0199
1131,0.0598
1132,0.0199
1133,-0.0199
1134,0.1594
1135,0.0598
1136,0.0398
1137,0.0996
1138,0.1395
1139,0.2590
1140,0.2988
1141,0.2988
1142,0.3188
1143,0.3984
1144,0.3387
1145,0.1992
1146,0.0996
1147,0.1395
1148,0.1195
1149,0.0996
1150,0.1395
1151,0.1793
1152,0.2191
1153,0.2590
1154,0.1793
1155,0.1594
1156,0.0797
1157,0.0797
1158,0.0398
1159,-0.1395
1160,-0.2590
1161,-0.0797
1162,0.0598
1163,0.1594
1164,0.1793
1165,0.1992
1166,0.2391
1167,0.2191
1168,0.1793
1169,0.3387
1170,0.3785
1171,0.3984
1172,0.3586
1173,0.3188
1174,0.2590
1175,0.1992
1176,0.1594
1177,0.0996
1178,0.1594
1179,0.0797
1180,0.0598
1181,0.1395
1182,0.1793
1183,0.2391
1184,0.1395
1185,0.1195
1186,0.1395
1187,0.0996
1188,0.1395
1189,0.1195
1190,0.0996
1191,0.0199
1192,-0.0598
1193,-0.1395
1194,-0.1793
1195,-0.1195
1196,-0.0598
1197,-0.0598
1198,-0.0598
1199,-0.1395
1200,-0.2590
1201,-0.2191
1202,-0.1793
1203,-0.1195
1204,-0.0996
1205,-0.0398
1206,0.0398
1207,0.1395
1208,0.1793
1209,0.1395
1210,0.1992
1211,0.0797
1212,0.0598
1213,0.0398
1214,0.0398
1215,0.0996
1216,0.1195
1217,0.0598
1218,-0.0199
1219,0.0000
1220,0.0199
1221,0.0199
1222,0.0199
1223,-0.0598
1224,-0.1992
1225,-0.0996
1226,-0.1992
1227,-0.2391
1228,-0.2191
1229,-0.1793
1230,-0.1992
1231,-0.0996
1232,-0.1195
1233,0.0199
1234,0.0598
1235,0.0996
1236,0.1395
1237,0.1395
1238,0.2391
1239,0.1195
1240,-0.0598
1241,-0.0398
1242,-0.0797
1243,-0.0199
1244,0.0199
1245,0.0199
1246,0.0000
1247,0.0000
1248,-0.0398
1249,-0.1594
1250,-0.1793
1251,-0.2590
1252,-0.2590
1253,-0.2391
1254,-0.1992
1255,-0.2191
1256,-0.0996
1257,0.0398
1258,0.0598
1259,0.0398
1260,0.0598
1261,0.1793
1262,0.1594
1263,0.1195
1264,0.1793
1265,0.1793
1266,0.2391
1267,0.1992
1268,0.1793
1269,0.1793
1270,0.1395
1271,0.1395
1272,0.0598
1273,0.1395
1274,0.1195
1275,0.0598
1276,0.0199
1277,-0.0398
1278,-0.0996
1279,-0.0398
1280,-0.0398
1281,0.0199
1282,0.0000
1283,-0.0199
1284,-0.0398
1285,0.0398
1286,0.0598
1287,0.0797
1288,0.0797
1289,0.0199
1290,0.1594
1291,0.1395
1292,0.1195
1293,0.1793
1294,0.1195
1295,0.1195
1296,0.1793
1297,0.1992
1298,0.0996
1299,0.0598
1300,-0.0398
1301,0.0000
1302,-0.1594
1303,-0.0797
1304,-0.0598
1305,-0.0996
1306,-0.1395
1307,-0.0996
1308,-0.0398
1309,0.0000
1310,0.0199
1311,0.0000
1312,-0.0199
1313,-0.0598
1314,-0.1395
1315,-0.1195
1316,-0.0996
1317,-0.0797
1318,-0.0398
1319,0.0398
1320,0.1594
1321,0.0598
1322,0.0000
1323,0.0797
1324,-0.0199
1325,0.0398
1326,0.0797
1327,0.0598
1328,0.1395
1329,0.0996
1330,0.0598
1331,0.0598
1332,0.0598
1333,0.1395
1334,0.0598
1335,-0.1195
1336,-0.1793
1337,-0.1793
1338,-0.1594
1339,-0.1594
1340,-0.0797
1341,-0.1195
1342,-0.1395
1343,-0.0598
1344,0.0000
1345,0.0996
1346,0.1195
1347,0.0199
1348,0.0000
1349,-0.0199
1350,-0.0398
1351,0.0598
1352,0.0598
1353,-0.0398
1354,0.0000
1355,0.0199
1356,0.0398
1357,0.1195
1358,0.1195
1359,0.1395
1360,0.1992
1361,0.1793
1362,0.0797
1363,-0.0199
1364,-0.0398
1365,-0.0598
1366,-0.1195
1367,-0.0398
1368,0.1195
1369,0.1395
1370,0.1793
1371,0.2191
1372,0.1793
1373,0.1992
1374,0.2191
1375,0.2191
1376,0.1594
1377,0.0398
1378,0.0598
1379,0.0199
1380,0.0199
1381,0.0000
1382,-0.0598
1383,0.0000
1384,-0.0199
1385,-0.0199
1386,0.0797
1387,0.1395
1388,0.1793
1389,0.1793
1390,0.1195
1391,0.0398
1392,-0.0199
1393,0.0996
1394,0.1594
1395,0.1793
1396,0.1395
1397,0.0797
1398,0.0797
1399,-0.0398
1400,-0.0398
1401,-0.0996
1402,-0.0996
1403,-0.0797
1404,-0.1395
1405,-0.0797
1406,0.0398
1407,0.0398
1408,0.0598
1409,0.0797
1410,0.0398
1411,0.1195
1412,0.1395
1413,0.0598
1414,-0.0398
1415,0.0398
1416,0.0199
1417,-0.0199
1418,0.0199
1419,-0.0996
1420,-0.0996
1421,-0.1195
1422,-0.1594
1423,-0.1793
1424,-0.1594
1425,-0.1594
1426,0.0598
1427,-0.0797
1428,-0.1395
1429,-0.1195
1430,-0.1195
1431,-0.0797
1432,-0.0797
1433,-0.0398
1434,0.0000
1435,-0.0598
1436,-0.0398
1437,0.0797
1438,0.0797
1439,0.0996
1440,0.0398
1441,-0.0797
1442,-0.2191
1443,-0.1793
1444,-0.0996
1445,-0.0398
1446,-0.0398
1447,0.0199
1448,0.0398
1449,0.1594
1450,0.1594
1451,0.2789
1452,0.1395
1453,0.0996
1454,0.0598
1455,0.0598
1456,0.0199
1457,-0.0398
1458,-0.0199
1459,-0.0996
1460,-0.1992
1461,-0.1793
1462,-0.0996
1463,-0.1195
1464,-0.1594
1465,-0.1594
1466,-0.0598
1467,-0.0398
1468,0.0598
1469,0.0598
1470,0.1195
1471,0.0797
1472,0.0199
1473,-0.0797
1474,-0.1594
1475,-0.1195
1476,-0.1594
1477,-0.0996
1478,-0.1992
1479,-0.2391
1480,-0.1395
1481,-0.0996
1482,-0.1195
1483,-0.1594
1484,-0.1395
1485,-0.0996
1486,-0.0797
1487,-0.0797
1488,-0.0199
1489,0.0199
1490,0.0398
1491,0.0996
1492,0.0996
1493,0.1793
1494,0.0598
1495,0.0398
1496,-0.0398
1497,-0.0996
1498,0.0199
1499,-0.0797
1500,-0.0996
1501,-0.0996
1502,-0.0797
1503,-0.0199
1504,0.0000
1505,-0.0199
1506,-0.0797
1507,-0.0199
1508,-0.1594
1509,-0.1195
1510,-0.0996
1511,-0.0797
1512,-0.0797
1513,0.0199
1514,0.0000
1515,0.0797
1516,0.0996
1517,-0.0598
1518,-0.0797
1519,-0.1395
1520,-0.1992
1521,-0.2191
1522,-0.2391
1523,-0.1594
1524,-0.1992
1525,-0.1195
1526,-0.0199
1527,-0.0398
1528,0.0000
1529,-0.0199
1530,-0.0797
1531,0.0199
1532,0.0598
1533,0.1195
1534,0.0000
1535,-0.0996
1536,-0.1195
1537,-0.2590
1538,-0.3188
1539,-0.4582
1540,-0.4184
1541,-0.3586
1542,-0.3586
1543,-0.1195
1544,-0.1195
1545,-0.0797
1546,-0.1195
1547,-0.2191
1548,-0.0598
1549,0.0199
1550,-0.0199
1551,0.0000
1552,-0.0996
1553,-0.1594
1554,-0.0996
1555,0.0000
1556,0.0000
1557,-0.0398
1558,-0.1793
1559,-0.1793
1560,-0.1793
1561,-0.1195
1562,-0.1395
1563,-0.1395
1564,-0.0598
1565,0.0996
1566,0.1594
1567,0.1395
1568,0.0199
1569,-0.0199
1570,-0.0598
1571,-0.0598
1572,-0.0996
1573,-0.0797
1574,-0.1793
1575,-0.1395
1576,-0.0398
1577,-0.0797
1578,-0.0398
1579,-0.0199
1580,0.0000
1581,-0.0598
1582,-0.0797
1583,-0.1793
1584,-0.1594
1585,-0.1793
1586,-0.2191
1587,-0.1195
1588,-0.0797
1589,0.0000
1590,0.0996
1591,0.1195
1592,0.1195
1593,0.0797
1594,0.0598
1595,0.0797
1596,0.0000
1597,-0.1395
1598,-0.0598
1599,-0.0797
1600,-0.1195
1601,-0.1395
1602,-0.1195
1603,-0.0199
1604,-0.0398
1605,-0.0199
1606,0.0598
1607,0.0598
1608,0.0598
1609,0.0199
1610,0.0199
1611,0.0797
1612,0.0598
1613,-0.0199
1614,0.0000
1615,-0.0199
1616,-0.0598
1617,-0.1793
1618,-0.2191
1619,-0.1195
1620,-0.0996
1621,-0.1594
1622,-0.1793
1623,-0.1992
1624,-0.0996
1625,-0.0199
1626,-0.0398
1627,-0.0398
1628,0.0199
1629,0.0398
1630,0.0797
1631,0.0199
1632,-0.0398
1633,0.0000
1634,0.1594
1635,0.1594
1636,0.1793
1637,0.1594
1638,0.1395
1639,0.1195
1640,0.0996
1641,0.1395
1642,0.1793
1643,0.1395
1644,0.0996
1645,0.0398
1646,0.0598
1647,0.1195
1648,0.0199
1649,0.0199
1650,0.0398
1651,0.0000
1652,0.0996
1653,0.1594
1654,0.1793
1655,0.1195
1656,0.1395
1657,0.0996
1658,0.0797
1659,0.0199
1660,0.0000
1661,-0.0199
1662,-0.0797
1663,-0.0996
1664,-0.1195
1665,-0.0797
1666,-0.0199
1667,0.0797
1668,0.1594
1669,0.1992
1670,0.1395
1671,0.1793
1672,0.1992
1673,0.0996
1674,0.1195
1675,-0.0199
1676,-0.0398
1677,-0.0598
1678,-0.0996
1679,-0.1992
1680,-0.1594
1681,-0.1395
1682,-0.0797
1683,0.0598
1684,0.0797
1685,-0.0199
1686,-0.0598
1687,-0.0598
1688,-0.0797
1689,-0.1992
1690,-0.1395
1691,-0.2590
1692,-0.2391
1693,-0.1395
1694,-0.1594
1695,0.0199
1696,0.0797
1697,0.0797
1698,0.1195
1699,0.0996
1700,0.0598
1701,0.0199
1702,0.0199
1703,-0.0398
1704,-0.0199
1705,0.0000
1706,0.0398
1707,0.0797
1708,0.0996
1709,0.1395
1710,0.2590
1711,0.1395
1712,0.0797
1713,0.0598
1714,0.0398
1715,0.0199
1716,-0.0598
1717,-0.0797
1718,-0.0797
1719,-0.0797
1720,0.0199
1721,0.1195
1722,0.0797
1723,0.0996
1724,0.1395
1725,0.1195
1726,0.0996
1727,0.0000
1728,-0.0199
1729,-0.0996
1730,-0.1992
1731,-0.0797
1732,-0.0199
1733,0.0598
1734,0.0598
1735,0.0000
1736,0.0797
1737,0.1594
1738,0.0797
1739,0.0000
1740,-0.0598
1741,-0.1195
1742,-0.0996
1743,0.0398
1744,0.0199
1745,0.1594
1746,0.0000
1747,-0.1793
1748,-0.1793
1749,-0.0996
1750,-0.0398
1751,0.0000
1752,0.0598
1753,0.1195
1754,0.1395
1755,0.1195
1756,0.0000
1757,-0.1195
1758,-0.0398
1759,0.0199
1760,0.0598
1761,0.0797
1762,0.1395
1763,0.1594
1764,0.1594
1765,0.1395
1766,0.0398
1767,-0.0797
1768,-0.0398
1769,-0.0398
1770,-0.0199
1771,0.0598
1772,0.0996
1773,0.1395
1774,0.1992
1775,0.0996
1776,0.0199
1777,0.0797
1778,0.0797
1779,0.0199
1780,0.0398
1781,0.0199
1782,0.0797
1783,0.1195
1784,0.0797
1785,0.1594
1786,0.1594
1787,0.2191
1788,0.1992
1789,0.1793
1790,0.2191
1791,0.1992
1792,0.1195
1793,0.1195
1794,0.1793
1795,0.1395
1796,0.1992
1797,0.2988
1798,0.2391
1799,0.1195
1800,0.1793
1801,0.2391
1802,0.1395
1803,0.0598
1804,0.0797
1805,0.1195
1806,0.1395
1807,0.1793
1808,0.2391
1809,0.1594
1810,0.0398
1811,0.0199
1812,-0.0996
1813,-0.0598
1814,-0.0598
1815,-0.0996
1816,-0.1395
1817,-0.0398
1818,0.0996
1819,0.2590
1820,0.2391
1821,0.1594
1822,0.2191
1823,0.1594
1824,0.0996
1825,0.0398
1826,0.0000
1827,0.0199
1828,0.0000
1829,-0.0199
1830,-0.0199
1831,0.0199
1832,0.0598
1833,0.0598
1834,0.0996
1835,0.0398
1836,-0.0199
1837,0.0199
1838,-0.0398
1839,-0.0797
1840,-0.0797
1841,-0.0797
1842,-0.0996
1843,-0.0398
1844,0.0398
1845,0.2191
1846,0.1594
1847,-0.0199
1848,-0.0199
1849,0.0000
1850,-0.0199
1851,-0.0398
1852,-0.0598
1853,-0.1395
1854,-0.1195
1855,-0.0398
1856,0.0398
1857,0.0996
1858,0.0398
1859,-0.0398
1860,0.0398
1861,0.0598
1862,0.0797
1863,0.0598
1864,-0.0199
1865,0.0000
1866,0.0398
1867,0.0996
1868,0.1395
1869,0.0996
1870,0.0996
1871,0.1395
1872,0.1195
1873,0.2391
1874,0.1992
1875,0.1195
1876,0.0199
1877,0.0199
1878,-0.0199
1879,-0.0996
1880,-0.0797
1881,-0.0398
1882,-0.2391
1883,-0.1793
1884,-0.1395
1885,-0.0398
1886,0.0598
1887,-0.0598
1888,-0.0398
1889,0.0199
1890,-0.0398
1891,0.0000
1892,0.0000
1893,0.0199
1894,0.0598
1895,0.0000
1896,-0.0797
1897,-0.1395
1898,-0.1594
1899,-0.0199
1900,-0.0598
1901,-0.1195
1902,-0.2191
1903,-0.1594
1904,-0.1793
1905,-0.1594
1906,-0.1594
1907,-0.1992
1908,-0.1793
1909,-0.0797
1910,-0.1195
1911,-0.0797
1912,-0.1195
1913,-0.0996
1914,-0.0996
1915,0.0199
1916,-0.0398
1917,-0.0598
1918,-0.0398
1919,0.0598
1920,0.1395
1921,0.0398
1922,0.0000
1923,-0.0398
1924,-0.1395
1925,-0.0398
1926,-0.1195
1927,-0.1793
1928,-0.2391
1929,-0.4184
1930,-0.3586
1931,-0.2590
1932,-0.1594
1933,-0.1195
1934,-0.0996
1935,0.0199
1936,0.1195
1937,0.0996
1938,0.0199
1939,0.0398
1940,0.0598
1941,0.0398
1942,0.0398
1943,0.0199
1944,0.0199
1945,0.0398
1946,0.0797
1947,0.0398
1948,0.0797
1949,0.0598
1950,0.0398
1951,0.0000
1952,-0.0398
1953,-0.0398
1954,-0.0598
1955,-0.0996
1956,0.0000
1957,-0.0598
1958,0.0000
1959,0.0000
1960,0.0199
1961,0.0598
1962,-0.0598
1963,-0.0199
1964,0.0199
1965,0.0996
1966,0.1395
1967,0.0598
1968,-0.0398
1969,-0.0398
1970,0.0000
1971,-0.1195
1972,-0.1195
1973,-0.0598
1974,-0.0797
1975,-0.0996
1976,-0.1793
1977,-0.0996
1978,0.0000
1979,0.0598
1980,0.0398
1981,0.1594
1982,0.1793
1983,0.1793
1984,0.0797
1985,0.1395
1986,0.1395
1987,0.1195
1988,0.1793
1989,0.1195
1990,0.0000
1991,0.0199
1992,0.0000
1993,0.0000
1994,-0.0598
1995,-0.0398
1996,-0.0598
1997,-0.0398
1998,0.0000
1999,0.0199
2000,0.0598
2001,0.0398
2002,0.0000
2003,0.0398
2004,-0.0199
2005,-0.0199
2006,-0.0598
2007,-0.0996
2008,-0.0598
2009,-0.0797
2010,-0.0797
2011,0.0000
2012,-0.0199
2013,-0.0598
2014,-0.0598
2015,-0.0598
2016,0.0398
2017,0.0996
2018,0.1395
2019,0.1992
2020,0.1793
2021,0.1195
2022,0.0598
2023,0.0398
2024,0.0398
2025,0.0199
2026,-0.0199
2027,-0.0199
2028,0.0199
2029,0.0000
2030,-0.0398
2031,-0.0199
2032,-0.0398
2033,-0.1195
2034,-0.0996
2035,-0.1195
2036,-0.0398
2037,-0.0398
2038,-0.0598
2039,-0.0598
2040,0.0000
2041,0.0199
2042,0.0000
2043,0.0000
2044,-0.0598
2045,-0.0398
2046,0.0398
2047,0.0398
2048,0.0199
2049,-0.0398
2050,-0.0598
2051,-0.0996
2052,-0.0598
2053,-0.0398
2054,0.0199
2055,0.0598
2056,-0.0398
2057,0.0000
2058,-0.0398
2059,0.0199
2060,0.0199
2061,0.0000
2062,-0.0398
2063,-0.0996
2064,-0.1195
2065,-0.1395
2066,-0.0797
2067,-0.1395
2068,-0.0996
2069,-0.1395
2070,-0.0996
2071,-0.0797
2072,-0.0996
2073,-0.0398
2074,0.0000
2075,0.0199
2076,0.0598
2077,-0.0598
2078,0.0199
2079,0.0000
2080,0.0000
2081,0.0199
2082,0.1195
2083,0.0996
2084,0.0398
2085,-0.0199
2086,-0.0996
2087,-0.0996
2088,-0.1594
2089,-0.1395
2090,-0.0996
2091,-0.0996
2092,-0.1195
2093,-0.0398
2094,0.0199
2095,0.0797
2096,0.0598
2097,0.0797
2098,0.1195
2099,0.0797
2100,0.0598
2101,0.0598
2102,0.1793
2103,0.1992
2104,0.0996
2105,0.0398
2106,0.0598
2107,0.1594
2108,0.0996
2109,-0.0598
2110,-0.1992
2111,-0.2988
2112,-0.2191
2113,-0.0598
2114,-0.0598
2115,-0.0199
2116,0.1793
2117,0.1395
2118,0.1793
2119,0.1992
2120,0.2191
2121,0.2191
2122,0.0797
2123,0.1195
2124,0.0996
2125,0.0000
2126,-0.0996
2127,-0.0598
2128,-0.0996
2129,-0.1395
2130,-0.0398
2131,0.0797
2132,0.0996
2133,0.1395
2134,0.1395
2135,0.0398
2136,0.0598
2137,0.0000
2138,-0.0398
2139,-0.0797
2140,-0.1793
2141,-0.1793
2142,-0.1594
2143,-0.1793
2144,-0.0797
2145,0.0598
2146,0.0598
2147,-0.0398
2148,-0.0199
2149,-0.0398
2150,-0.0199
2151,-0.0598
2152,-0.0996
2153,-0.0797
2154,-0.0996
2155,-0.1195
2156,-0.0398
2157,-0.0398
2158,-0.1195
2159,-0.0996
2160,-0.0199
2161,0.0398
2162,0.0398
2163,0.0598
2164,0.1395
2165,0.2391
2166,0.2590
2167,0.1195
2168,0.0398
2169,-0.1195
2170,-0.1195
2171,-0.0199
2172,-0.0598
2173,0.0199
2174,0.0398
2175,0.0000
2176,0.0398
2177,0.0398
2178,0.0398
2179,0.0000
2180,0.0398
2181,0.0797
2182,0.1594
2183,0.1793
2184,0.0797
2185,0.0398
2186,0.1195
2187,0.1594
2188,0.1195
2189,0.0199
2190,-0.1195
2191,-0.1793
2192,-0.1793
2193,0.0598
2194,0.0996
2195,0.1195
2196,0.1395
2197,0.1395
2198,0.1395
2199,0.2191
2200,0.1992
2201,0.1395
2202,0.0797
2203,0.0797
2204,0.0797
2205,0.1594
2206,0.1992
2207,0.2590
2208,0.2789
2209,0.2391
2210,0.1195
2211,0.2191
2212,0.2590
2213,0.2988
2214,0.1793
2215,0.0000
2216,0.0000
2217,0.0000
2218,0.0996
2219,0.0199
2220,-0.0398
2221,-0.1195
2222,-0.1793
2223,-0.1195
2224,-0.0996
2225,-0.0199
2226,0.0797
2227,-0.0199
2228,-0.0398
2229,0.0398
2230,0.0000
2231,-0.0199
2232,-0.1395
2233,-0.1992
2234,-0.1793
2235,-0.1195
2236,-0.0996
2237,-0.0398
2238,-0.0797
2239,-0.0996
2240,-0.0598
2241,-0.0398
2242,-0.0797
2243,-0.1594
2244,-0.1793
2245,-0.2191
2246,-0.1793
2247,-0.0797
2248,-0.1395
2249,-0.2789
2250,-0.2988
2251,-0.2590
2252,-0.3188
2253,-0.2191
2254,-0.2789
2255,-0.1793
2256,-0.1594
2257,-0.1793
2258,-0.0996
2259,-0.0199
2260,0.0000
2261,0.0996
2262,0.1395
2263,0.0996
2264,0.0000
2265,-0.0598
2266,-0.1395
2267,-0.1992
2268,-0.2391
2269,-0.2789
2270,-0.2789
2271,-0.1793
2272,-0.0199
2273,0.0199
2274,0.0199
2275,0.0199
2276,0.0996
2277,0.0797
2278,0.0398
2279,0.0398
2280,-0.0398
2281,-0.1594
2282,-0.1793
2283,-0.2391
2284,-0.2191
2285,-0.1793
2286,-0.0996
2287,0.0398
2288,0.1793
2289,0.1992
2290,0.1793
2291,0.1793
2292,0.1195
2293,0.1992
2294,0.1195
2295,0.0000
2296,-0.0598
2297,-0.1594
2298,-0.1395
2299,-0.1195
2300,-0.0199
2301,0.0398
2302,0.0199
2303,0.0199
2304,0.0996
2305,0.1195
2306,0.1594
2307,0.0996
2308,0.0996
2309,0.0797
2310,0.0598
2311,-0.0598
2312,-0.0797
2313,-0.1395
2314,-0.0598
2315,-0.0598
2316,0.0398
2317,-0.0199
2318,0.0398
2319,0.0000
2320,0.0797
2321,0.0996
2322,0.0598
2323,0.0598
2324,0.0199
2325,0.0000
2326,0.0000
2327,0.1195
2328,0.1594
2329,0.0797
2330,0.0996
2331,0.0797
2332,0.0000
2333,-0.0797
2334,-0.0398
2335,-0.0797
2336,-0.1195
2337,-0.1395
2338,-0.0996
2339,-0.0797
2340,-0.0797
2341,0.0199
2342,-0.0199
2343,0.0797
2344,0.0996
2345,0.0598
2346,0.0398
2347,0.0199
2348,0.0000
2349,0.1195
2350,-0.0398
2351,-0.1793
2352,-0.1992
2353,-0.1992
2354,-0.0996
2355,0.0199
2356,-0.0199
2357,-0.0598
2358,0.0996
2359,0.2191
2360,0.0598
2361,0.0398
2362,0.0000
2363,0.0000
2364,-0.0398
2365,-0.0797
2366,-0.0996
2367,-0.0996
2368,-0.0199
2369,0.0199
2370,0.0797
2371,0.0398
2372,-0.0199
2373,0.0598
2374,0.0996
2375,0.0996
2376,0.0199
2377,0.0000
2378,0.0598
2379,0.0000
2380,-0.0598
2381,-0.0598
2382,-0.0598
2383,-0.0199
2384,-0.0199
2385,-0.0996
2386,-0.1992
2387,-0.0996
2388,-0.1395
2389,-0.0996
2390,-0.0797
2391,-0.0996
2392,-0.0598
2393,-0.0199
2394,-0.0199
2395,-0.0199
2396,0.0199
2397,0.0199
2398,0.0000
2399,-0.1195
2400,-0.1793
2401,-0.1395
2402,-0.1195
2403,-0.1395
2404,-0.0797
2405,-0.1195
2406,-0.0996
2407,-0.0797
2408,0.0598
2409,0.0996
2410,0.0598
2411,0.0996
2412,0.0000
2413,0.0598
2414,0.0199
2415,0.0199
2416,0.0598
2417,0.1395
2418,0.1395
2419,-0.0598
2420,-0.0996
2421,-0.0598
2422,0.0000
2423,0.0398
2424,0.0199
2425,0.0199
2426,0.0000
2427,0.0000
2428,0.0598
2429,0.0199
2430,0.0996
2431,0.0398
2432,-0.0199
2433,-0.0398
2434,-0.0797
2435,-0.1195
2436,-0.0398
2437,-0.0398
2438,-0.0199
2439,0.0797
2440,0.0199
2441,-0.0797
2442,-0.0598
2443,-0.0797
2444,-0.0199
2445,-0.0199
2446,-0.0598
2447,0.0000
2448,0.1195
2449,0.0598
2450,0.0398
2451,-0.0797
2452,-0.0398
2453,0.0398
2454,-0.0398
2455,-0.0199
2456,0.0000
2457,0.0199
2458,0.0398
2459,-0.0199
2460,0.0000
2461,-0.0199
2462,-0.1195
2463,-0.0797
2464,-0.0797
2465,-0.0199
2466,0.0000
2467,0.0797
2468,0.1395
2469,0.0996
2470,0.0797
2471,0.0598
2472,0.0199
2473,-0.0598
2474,-0.1395
2475,-0.0398
2476,-0.0797
2477,0.0000
2478,0.0000
2479,-0.0797
2480,0.0797
2481,0.1395
2482,0.0000
2483,-0.0398
2484,-0.1395
2485,-0.0996
2486,-0.1594
2487,-0.0797
2488,-0.0199
2489,0.0398
2490,0.0797
2491,0.0797
2492,0.0996
2493,0.2391
2494,0.2191
2495,0.0598
2496,0.0000
2497,-0.0996
2498,-0.1195
2499,-0.1395
2500,-0.1395
2501,-0.1395
2502,-0.1395
2503,-0.0797
2504,-0.0598
2505,0.0000
2506,0.0000
2507,-0.0797
2508,-0.0996
2509,-0.1594
2510,-0.1195
2511,-0.0797
2512,-0.0996
2513,-0.0199
2514,-0.0398
2515,-0.0797
2516,-0.0199
2517,-0.0398
2518,0.0000
2519,-0.0797
2520,-0.0598
2521,-0.0797
2522,-0.0996
2523,0.0398
2524,0.0996
2525,0.0398
2526,-0.0797
2527,-0.1395
2528,-0.1395
2529,-0.1594
2530,-0.1195
2531,-0.0398
2532,-0.0598
2533,-0.0398
2534,-0.0199
2535,-0.0199
2536,0.0000
2537,0.0000
2538,0.0398
2539,-0.0199
2540,0.0398
2541,0.0598
2542,0.0598
2543,-0.0199
2544,-0.0199
2545,-0.0598
2546,-0.0398
2547,0.0000
2548,0.0398
2549,0.0797
2550,0.0598
2551,0.0598
2552,0.0598
2553,0.0598
2554,0.0000
2555,-0.0199
2556,-0.0598
2557,-0.0598
2558,-0.1195
2559,-0.1395
2560,-0.1594
2561,-0.0598
2562,-0.1195
2563,-0.0398
2564,-0.0199
2565,-0.0398
2566,0.0199
2567,0.0797
2568,0.1195
2569,0.2191
2570,0.3188
2571,0.2988
2572,0.1195
2573,-0.0398
2574,-0.1594
2575,-0.2191
2576,-0.1992
2577,-0.1395
2578,-0.1195
2579,-0.0398
2580,-0.0199
2581,0.0199
2582,0.0000
2583,0.0000
2584,-0.0398
2585,0.0398
2586,0.0996
2587,0.1793
2588,0.2191
2589,0.1395
2590,0.0598
2591,-0.0199
2592,-0.0199
2593,-0.0199
2594,-0.0996
2595,-0.1793
2596,-0.0797
2597,-0.0797
2598,0.0000
2599,0.0199
2600,0.0199
2601,0.0000
2602,-0.0199
2603,-0.0199
2604,-0.0398
2605,-0.0398
2606,-0.0398
2607,0.0199
2608,-0.0199
2609,-0.0199
2610,0.0199
2611,0.0199
2612,0.0000
2613,0.0398
2614,-0.0199
2615,-0.0199
2616,0.0000
2617,-0.0598
2618,-0.0398
2619,-0.0996
2620,-0.1195
2621,-0.0797
2622,-0.0199
2623,0.0199
2624,-0.0199
2625,0.0000
2626,0.0398
2627,0.0598
2628,0.0797
2629,0.0398
2630,0.0199
2631,0.0797
2632,0.2191
2633,0.1195
2634,0.0996
2635,0.0199
2636,0.0000
2637,-0.0996
2638,-0.0398
2639,-0.1195
2640,-0.0797
2641,-0.0598
2642,0.0199
2643,0.0398
2644,0.0199
2645,0.0199
2646,-0.0199
2647,-0.0199
2648,-0.0199
2649,0.0000
2650,-0.0797
2651,-0.1195
2652,-0.1793
2653,-0.0797
2654,-0.0199
2655,-0.0398
2656,-0.0199
2657,-0.0598
2658,0.0199
2659,0.0398
2660,0.0797
2661,-0.0199
2662,0.0000
2663,-0.0996
2664,-0.0398
2665,0.0797
2666,0.0598
2667,0.0797
2668,0.0398
2669,0.0598
2670,0.0598
2671,-0.0199
2672,-0.0598
2673,-0.0398
2674,-0.0199
2675,-0.0598
2676,-0.0199
2677,-0.0398
2678,-0.0598
2679,-0.0598
2680,-0.0199
2681,0.0199
2682,0.0000
2683,0.0000
2684,0.0398
2685,-0.0199
2686,-0.0199
2687,-0.0199
2688,0.0000
2689,-0.0199
2690,-0.0199
2691,0.0000
2692,0.0000
2693,0.0598
2694,0.0000
2695,0.0000
2696,0.0000
2697,-0.0199
2698,-0.0598
2699,-0.0996
2700,-0.0398
2701,-0.0199
2702,-0.0996
2703,-0.0199
2704,0.0199
2705,0.0598
2706,0.0996
2707,0.0797
2708,0.0996
2709,0.0598
2710,0.0398
2711,0.1195
2712,0.1594
2713,0.1395
2714,0.0398
2715,0.0199
2716,-0.0598
2717,-0.1992
2718,-0.0996
2719,0.0000
2720,0.0398
2721,0.1992
2722,0.1594
2723,0.0996
2724,0.0398
2725,0.0398
2726,0.1395
2727,0.2191
2728,0.3188
2729,0.3188
2730,0.2191
2731,0.1992
2732,0.1793
2733,0.1594
2734,0.1594
2735,0.0797
2736,0.0199
2737,-0.0598
2738,-0.0598
2739,-0.0797
2740,-0.0199
2741,0.1395
2742,0.0199
2743,-0.0797
2744,-0.0797
2745,-0.0996
2746,-0.0797
2747,-0.0797
2748,-0.0199
2749,-0.0598
2750,-0.1195
2751,-0.2191
2752,-0.1395
2753,-0.0797
2754,-0.1793
2755,-0.1793
2756,-0.1992
2757,-0.0996
2758,-0.1195
2759,-0.0398
2760,-0.0199
2761,0.0000
2762,-0.1395
2763,-0.1793
2764,-0.2391
2765,-0.2988
2766,-0.2391
2767,-0.2391
2768,-0.2191
2769,-0.1793
2770,-0.1793
2771,-0.1793
2772,-0.0199
2773,0.0996
2774,0.0797
2775,0.1195
2776,0.0797
2777,0.1195
2778,0.0996
2779,0.0598
2780,0.0996
2781,0.2391
2782,0.2191
2783,0.2789
2784,0.2988
2785,0.2590
2786,0.1395
2787,0.0398
2788,-0.0398
2789,-0.0797
2790,-0.1594
2791,-0.1992
2792,-0.1395
2793,-0.0797
2794,-0.0398
2795,0.0398
2796,0.1195
2797,0.1594
2798,0.1395
2799,0.0598
2800,0.0000
2801,0.0398
2802,0.0398
2803,0.1395
2804,0.2191
2805,0.3188
2806,0.4184
2807,0.3188
2808,0.1594
2809,0.1793
2810,0.1594
2811,0.0797
2812,0.0000
2813,-0.0996
2814,-0.1992
2815,-0.1195
2816,-0.0199
2817,-0.0398
2818,0.0398
2819,0.0000
2820,-0.0398
2821,-0.0797
2822,-0.0996
2823,-0.1395
2824,-0.0797
2825,0.0199
2826,-0.0398
2827,-0.0398
2828,0.0398
2829,0.0398
2830,0.1195
2831,0.1594
2832,0.1594
2833,0.1594
2834,0.1594
2835,0.0797
2836,0.0797
2837,0.0199
2838,0.0598
2839,0.0598
2840,0.1395
2841,0.1793
2842,0.2191
2843,0.2789
2844,0.2590
2845,0.0797
2846,0.0000
2847,-0.0199
2848,-0.1395
2849,-0.0996
2850,-0.2391
2851,-0.2789
2852,-0.3188
2853,-0.2391
2854,-0.1195
2855,0.0996
2856,0.1395
2857,0.0398
2858,-0.0598
2859,-0.1195
2860,0.0199
2861,0.0398
2862,0.0398
2863,0.0797
2864,0.0398
2865,0.0199
2866,-0.1195
2867,-0.1992
2868,-0.2191
2869,-0.3188
2870,-0.2391
2871,-0.2590
2872,-0.2391
2873,-0.1992
2874,-0.0797
2875,0.0199
2876,0.0797
2877,0.1195
2878,0.1793
2879,0.2391
2880,0.1594
2881,0.0398
2882,0.0000
2883,-0.0398
2884,0.0398
2885,-0.0398
2886,0.0199
2887,0.0797
2888,0.0398
2889,0.0398
2890,0.0398
2891,0.0598
2892,0.0000
2893,-0.0797
2894,-0.1195
2895,-0.0398
2896,0.0797
2897,-0.0398
2898,-0.0996
2899,-0.1195
2900,-0.0996
2901,-0.1195
2902,-0.0398
2903,-0.1195
2904,-0.1195
2905,-0.0598
2906,-0.0199
2907,-0.0598
2908,-0.0598
2909,0.0199
2910,-0.0398
2911,-0.0996
2912,-0.1395
2913,-0.0797
2914,-0.0996
2915,-0.0797
2916,-0.0598
2917,-0.0398
2918,0.0398
2919,0.0996
2920,0.1195
2921,0.0996
2922,0.0398
2923,-0.1195
2924,-0.2789
2925,-0.3188
2926,-0.3387
2927,-0.2391
2928,-0.2590
2929,-0.2391
2930,-0.1195
2931,0.0398
2932,0.0199
2933,0.0797
2934,0.1992
2935,0.2391
2936,0.2391
2937,0.1594
2938,0.0199
2939,0.0598
2940,0.0797
2941,0.0797
2942,0.1195
2943,0.2191
2944,0.1395
2945,0.1793
2946,0.2789
2947,0.2789
2948,0.2590
2949,0.1594
2950,0.0000
2951,-0.0797
2952,-0.1594
2953,-0.1793
2954,-0.1594
2955,-0.1793
2956,-0.1195
2957,-0.0398
2958,0.0398
2959,-0.0797
2960,-0.0398
2961,0.0199
2962,0.0797
2963,0.0398
2964,0.0398
2965,0.0797
2966,0.1395
2967,0.1195
2968,0.1594
2969,0.1195
2970,0.1395
2971,0.1395
2972,0.0398
2973,-0.0199
2974,-0.0398
2975,-0.0598
2976,0.0000
2977,-0.0398
2978,0.0000
2979,0.0000
2980,-0.0199
2981,0.0000
2982,0.0000
2983,0.0398
2984,0.0000
2985,-0.0199
2986,0.0000
2987,0.0199
2988,0.0398
2989,0.0398
2990,0.0398
2991,0.0797
2992,0.0797
2993,0.0598
2994,0.0398
2995,-0.0797
2996,-0.0797
2997,-0.1195
2998,-0.1195
2999,-0.0797
3000,-0.2191
3001,-0.1395
3002,-0.1395
3003,-0.0996
3004,-0.0797
3005,-0.0398
3006,-0.0199
3007,0.0398
3008,0.0797
3009,0.0199
3010,0.0598
3011,0.1594
3012,0.0996
3013,0.1395
3014,0.0797
3015,0.0996
3016,0.1195
3017,0.1195
3018,0.0996
3019,0.0598
3020,-0.0598
3021,-0.0598
3022,-0.0797
3023,-0.0199
3024,0.1195
3025,0.1195
3026,0.0797
3027,0.0398
3028,0.0000
3029,0.0199
3030,0.0398
3031,-0.0398
3032,-0.0996
3033,0.0398
3034,0.0398
3035,-0.0398
3036,-0.0797
3037,-0.0797
3038,-0.0598
3039,-0.0398
3040,0.0199
3041,0.0398
3042,0.0398
3043,-0.0398
3044,-0.0398
3045,0.0398
3046,0.1195
3047,0.0996
3048,0.0000
3049,-0.0199
3050,0.0199
3051,-0.0598
3052,-0.0797
3053,-0.1195
3054,-0.0598
3055,-0.0598
3056,-0.0199
3057,0.0000
3058,-0.0398
3059,0.0398
3060,0.0398
3061,0.0797
3062,0.0000
3063,0.0000
3064,-0.0996
3065,-0.1992
3066,-0.2191
3067,-0.1594
3068,-0.1594
3069,-0.0996
3070,-0.0398
3071,0.0199
3072,-0.0199
3073,0.1195
3074,0.0797
3075,-0.0598
3076,-0.0996
3077,-0.1395
3078,-0.1594
3079,-0.0996
3080,-0.0996
3081,-0.0199
3082,-0.0598
3083,-0.0199
3084,0.0398
3085,0.0398
3086,0.0199
3087,-0.0398
3088,-0.0199
3089,-0.0598
3090,-0.1395
3091,-0.0996
3092,-0.0797
3093,-0.0398
3094,-0.1793
3095,-0.1594
3096,-0.1594
3097,-0.1992
3098,-0.1395
3099,-0.0398
3100,-0.0199
3101,-0.0598
3102,-0.1195
3103,-0.1793
3104,-0.1594
3105,-0.2191
3106,-0.1992
3107,-0.2391
3108,-0.2391
3109,-0.1793
3110,-0.0398
3111,-0.0398
3112,-0.0797
3113,-0.1793
3114,-0.1395
3115,-0.1594
3116,-0.0996
3117,-0.0996
3118,-0.1195
3119,-0.1195
3120,-0.0996
3121,-0.0598
3122,-0.0797
3123,-0.0199
3124,-0.0996
3125,-0.1992
3126,-0.1992
3127,-0.2191
3128,-0.0996
3129,-0.0996
3130,-0.0996
3131,-0.0398
3132,0.0398
3133,0.0000
3134,-0.0598
3135,-0.1793
3136,-0.0996
3137,-0.0996
3138,0.0199
3139,0.0797
3140,0.1793
3141,0.2391
3142,0.2191
3143,0.1793
3144,0.1594
3145,0.1195
3146,0.1594
3147,0.2391
3148,0.1793
3149,0.1793
3150,0.1992
3151,0.2590
3152,0.2789
3153,0.2191
3154,0.1793
3155,0.2191
3156,0.1195
3157,0.0398
3158,0.0598
3159,-0.0199
3160,-0.0398
3161,-0.0398
3162,-0.0199
3163,0.0199
3164,0.0199
3165,-0.0199
3166,0.0797
3167,0.0797
3168,0.0797
3169,-0.0398
3170,-0.0199
3171,-0.0199
3172,0.0398
3173,-0.0199
3174,0.0199
3175,0.0398
3176,-0.0398
3177,-0.0199
3178,-0.0398
3179,-0.0996
3180,-0.1395
3181,-0.1195
3182,-0.0797
3183,-0.0598
3184,-0.0598
3185,-0.0797
3186,0.0000
3187,0.0199
3188,-0.0199
3189,-0.0797
3190,-0.0398
3191,0.0996
3192,0.1195
3193,0.0398
3194,-0.0199
3195,-0.0398
3196,-0.0598
3197,-0.0797
3198,-0.0598
3199,-0.1195
3200,-0.0797
3201,-0.0598
3202,-0.0996
3203,-0.0598
3204,-0.0797
3205,0.0000
3206,-0.0598
3207,-0.1594
3208,-0.1395
3209,-0.0797
3210,-0.1395
3211,-0.0797
3212,-0.1395
3213,-0.1395
3214,0.0199
3215,0.0797
3216,0.1594
3217,0.0598
3218,0.0996
3219,0.0797
3220,0.0398
3221,0.1195
3222,0.1793
3223,0.0199
3224,-0.0996
3225,-0.0398
3226,0.0199
3227,0.0797
3228,0.1594
3229,0.1195
3230,0.0398
3231,-0.0199
3232,0.0199
3233,0.1195
3234,0.0797
3235,0.1594
3236,0.2391
3237,0.2391
3238,0.2590
3239,0.0598
3240,0.0598
3241,-0.0199
3242,-0.0199
3243,0.0598
3244,0.0996
3245,0.0000
3246,0.0000
3247,0.0199
3248,-0.0398
3249,-0.0996
3250,-0.2391
3251,-0.1992
3252,-0.1594
3253,-0.1395
3254,-0.0996
3255,-0.0996
3256,-0.1793
3257,-0.2789
3258,-0.1992
3259,-0.2191
3260,-0.1594
3261,-0.1793
3262,-0.2590
3263,-0.1594
3264,-0.0797
3265,0.0598
3266,0.1195
3267,0.1395
3268,0.1395
3269,0.2191
3270,0.2789
3271,0.1793
3272,0.1195
3273,0.1195
3274,0.0797
3275,0.0398
3276,0.0000
3277,0.0000
3278,-0.0199
3279,0.0000
3280,-0.1395
3281,-0.0996
3282,-0.0598
3283,-0.0199
3284,0.0797
3285,0.1594
3286,0.1992
3287,0.4582
3288,0.4383
3289,0.2789
3290,0.1395
3291,0.0598
3292,-0.0199
3293,-0.1992
3294,-0.1992
3295,-0.2391
3296,-0.2789
3297,-0.2391
3298,-0.0797
3299,0.0199
3300,0.0000
3301,-0.0797
3302,-0.0996
3303,-0.0598
3304,-0.0996
3305,-0.0598
3306,-0.0199
3307,0.0000
3308,0.0797
3309,0.0996
3310,0.0398
3311,0.1195
3312,0.1195
3313,-0.0199
3314,-0.0598
3315,-0.0199
3316,0.0199
3317,0.0398
3318,0.0797
3319,0.0398
3320,0.0598
3321,-0.0398
3322,0.1395
3323,0.0996
3324,-0.0398
3325,-0.1195
3326,-0.1793
3327,-0.2191
3328,-0.1992
3329,-0.2191
3330,-0.2191
3331,-0.0996
3332,0.0398
3333,0.1594
3334,0.1992
3335,0.0199
3336,-0.0398
3337,-0.1395
3338,-0.1594
3339,-0.1594
3340,-0.2789
3341,-0.2590
3342,0.0199
3343,0.0199
3344,0.0000
3345,0.0996
3346,0.0598
3347,0.0797
3348,0.0199
3349,-0.0797
3350,-0.0797
3351,-0.2391
3352,-0.2988
3353,-0.2988
3354,-0.1594
3355,-0.0996
3356,0.0000
3357,0.1594
3358,0.3387
3359,0.3586
3360,0.2789
3361,0.2391
3362,0.0598
3363,0.0598
3364,0.0199
3365,-0.0996
3366,-0.0797
3367,-0.1395
3368,-0.2191
3369,-0.0199
3370,0.0199
3371,0.0000
3372,-0.0398
3373,0.0398
3374,0.0398
3375,0.0000
3376,-0.0199
3377,-0.0797
3378,0.0000
3379,0.0398
3380,-0.0199
3381,-0.0797
3382,0.0000
3383,0.0598
3384,0.1793
3385,0.0996
3386,0.0996
3387,0.0598
3388,-0.0199
3389,-0.0199
3390,0.0000
3391,-0.0398
3392,-0.0398
3393,-0.0398
3394,-0.0797
3395,-0.1594
3396,-0.0797
3397,-0.0398
3398,-0.0199
3399,-0.1395
3400,-0.0398
3401,0.0000
3402,0.1793
3403,0.1594
3404,0.1395
3405,0.0996
3406,0.0996
3407,0.0398
3408,-0.0398
3409,-0.0996
3410,-0.1992
3411,-0.0598
3412,0.0199
3413,0.0797
3414,0.0398
3415,0.0598
3416,-0.0598
3417,-0.1395
3418,-0.1195
3419,-0.1195
3420,-0.0797
3421,-0.0797
3422,-0.0996
3423,-0.0398
3424,0.0797
3425,0.1395
3426,0.1992
3427,0.0398
3428,0.0000
3429,-0.0797
3430,-0.2191
3431,-0.1395
3432,-0.1793
3433,-0.2191
3434,-0.1594
3435,-0.1195
3436,-0.0996
3437,0.0398
3438,0.0199
3439,-0.0797
3440,-0.0797
3441,-0.0797
3442,0.0000
3443,0.0199
3444,0.0199
3445,0.0398
3446,0.1395
3447,0.1395
3448,0.1195
3449,0.0598
3450,0.0996
3451,0.0398
3452,0.0598
3453,0.0996
3454,0.1195
3455,0.0000
3456,0.0199
3457,0.0398
3458,0.0598
3459,0.1395
3460,0.1594
3461,0.1793
3462,0.1992
3463,0.2391
3464,0.3586
3465,0.3586
3466,0.2988
3467,0.1395
3468,0.1594
3469,0.0797
3470,0.0996
3471,0.1395
3472,0.0000
3473,0.0398
3474,-0.0398
3475,-0.0199
3476,-0.0199
3477,0.0797
3478,0.0199
3479,0.0996
3480,0.1195
3481,-0.0996
3482,-0.1195
3483,-0.0996
3484,-0.0797
3485,0.0797
3486,0.0398
3487,0.0000
3488,-0.0199
3489,-0.0996
3490,0.0199
3491,0.1992
3492,0.1594
3493,0.1793
3494,0.2590
3495,0.1793
3496,0.1992
3497,0.0598
3498,0.0797
3499,-0.0598
3500,-0.1594
3501,-0.2789
3502,-0.2988
3503,-0.1992
3504,-0.1395
3505,-0.1195
3506,-0.0598
3507,-0.0598
3508,-0.0598
3509,-0.1793
3510,-0.1793
3511,-0.2391
3512,-0.2988
3513,-0.2391
3514,-0.2191
3515,-0.1195
3516,-0.0996
3517,0.0000
3518,0.0398
3519,-0.0199
3520,0.0398
3521,0.0598
3522,0.0598
3523,0.0598
3524,0.0199
3525,0.0598
3526,0.0199
3527,0.1395
3528,0.0000
3529,-0.0598
3530,-0.0199
3531,0.0000
3532,-0.0797
3533,-0.0996
3534,0.0398
3535,0.1594
3536,0.1395
3537,0.0797
3538,0.0996
3539,0.0598
3540,0.0797
3541,0.0398
3542,0.0000
3543,0.0797
3544,0.2391
3545,0.2789
3546,0.2191
3547,0.1195
3548,0.0199
3549,-0.0199
3550,-0.0199
3551,-0.0398
3552,-0.0598
3553,-0.1793
3554,-0.0598
3555,0.1793
3556,0.3785
3557,0.3188
3558,0.2191
3559,0.0199
3560,-0.0797
3561,-0.1195
3562,-0.1992
3563,-0.2191
3564,-0.3586
3565,-0.3984
3566,-0.1992
3567,-0.0797
3568,-0.0398
3569,0.0199
3570,0.0199
3571,-0.0398
3572,0.0199
3573,0.0398
3574,-0.0797
3575,-0.0996
3576,-0.1395
3577,-0.1395
3578,-0.0797
3579,-0.1195
3580,-0.0797
3581,-0.0797
3582,0.0000
3583,0.0000
3584,0.0398
3585,0.0398
3586,0.0199
3587,0.0000
3588,-0.0398
3589,-0.0598
3590,-0.0398
3591,-0.0996
3592,-0.0398
3593,-0.1195
3594,-0.0797
3595,0.0398
3596,0.0000
3597,0.0598
3598,0.0996
3599,0.1793
3600,0.1992
3601,0.1195
3602,-0.0598
3603,-0.1793
3604,-0.2590
3605,-0.2988
3606,-0.2590
3607,-0.1395
3608,-0.0797
3609,0.0199
3610,0.0199
3611,-0.0996
3612,-0.1395
3613,-0.0996
3614,-0.1395
3615,-0.0598
3616,-0.0398
3617,0.0000
3618,0.0797
3619,0.0996
3620,0.0598
3621,0.0797
3622,-0.0199
3623,-0.0398
3624,0.0000
3625,-0.0199
3626,0.1195
3627,0.0398
3628,0.0199
3629,0.0000
3630,0.0398
3631,0.1793
3632,0.1195
3633,0.1195
3634,0.0199
3635,-0.0199
3636,0.0797
3637,0.0199
3638,-0.0398
3639,-0.1594
3640,-0.1594
3641,-0.0797
3642,-0.1594
3643,-0.0199
3644,0.0199
3645,0.0199
3646,-0.0598
3647,0.0000
3648,0.0996
3649,0.1195
3650,0.0996
3651,0.0199
3652,0.0398
3653,-0.0199
3654,0.0000
3655,-0.0598
3656,-0.0996
3657,-0.1594
3658,-0.0797
3659,-0.0398
3660,-0.0398
3661,-0.1195
3662,-0.2191
3663,-0.2391
3664,-0.1395
3665,-0.1195
3666,-0.0398
3667,0.0000
3668,0.0000
3669,-0.0199
3670,0.0000
3671,-0.0199
3672,-0.0598
3673,-0.0797
3674,0.0598
3675,0.2191
3676,0.1395
3677,-0.0598
3678,-0.0797
3679,-0.2391
3680,-0.1793
3681,-0.1793
3682,-0.1395
3683,-0.0398
3684,-0.0598
3685,-0.0199
3686,0.0797
3687,0.1992
3688,0.2191
3689,0.2391
3690,0.2590
3691,0.1395
3692,-0.0199
3693,-0.0996
3694,-0.1594
3695,-0.1594
3696,-0.0598
3697,0.0598
3698,0.1594
3699,0.1594
3700,0.1195
3701,0.1793
3702,0.1395
3703,0.0996
3704,0.0199
3705,-0.0996
3706,-0.2391
3707,-0.2590
3708,-0.2191
3709,-0.1594
3710,-0.0598
3711,-0.0996
3712,-0.0199
3713,-0.0398
3714,0.0199
3715,0.0996
3716,-0.0398
3717,-0.0398
3718,0.0398
3719,-0.0598
3720,-0.1395
3721,-0.0797
3722,-0.1395
3723,-0.1195
3724,-0.0996
3725,-0.0398
3726,-0.1195
3727,-0.0797
3728,-0.0199
3729,-0.0598
3730,-0.0398
3731,0.0398
3732,0.0996
3733,0.1395
3734,0.1793
3735,0.2191
3736,0.3188
3737,0.0797
3738,0.0598
3739,-0.0598
3740,-0.0598
3741,0.0000
3742,0.0000
3743,0.0199
3744,0.0598
3745,0.0598
3746,0.1395
3747,0.1793
3748,0.1992
3749,0.0797
3750,-0.0199
3751,-0.0199
3752,0.0598
3753,0.1395
3754,0.1992
3755,0.2191
3756,0.1992
3757,0.1195
3758,0.0797
3759,0.0000
3760,0.0598
3761,0.0199
3762,0.0000
3763,0.0797
3764,0.0797
3765,0.0598
3766,0.0398
3767,0.0398
3768,0.1395
3769,0.1195
3770,0.1195
3771,0.0996
3772,0.0598
3773,0.0199
3774,-0.0199
3775,-0.0996
3776,-0.0598
3777,-0.0598
3778,-0.0199
3779,0.0398
3780,0.0996
3781,0.0398
3782,-0.0598
3783,-0.0797
3784,-0.0598
3785,-0.1594
3786,-0.1195
3787,-0.1395
3788,-0.1793
3789,-0.1594
3790,-0.0598
3791,0.0000
3792,-0.0199
3793,-0.0398
3794,-0.0199
3795,-0.0398
3796,-0.0797
3797,-0.0598
3798,0.0797
3799,0.1195
3800,0.1594
3801,0.1395
3802,0.1195
3803,0.1594
3804,0.1594
3805,0.1195
3806,0.0797
3807,-0.0199
3808,-0.0598
3809,-0.0398
3810,0.0199
3811,0.0000
3812,-0.0398
3813,-0.0598
3814,0.0598
3815,0.1195
3816,0.1992
3817,0.2191
3818,0.2789
3819,0.1793
3820,0.0996
3821,0.0398
3822,-0.0398
3823,-0.0797
3824,-0.0398
3825,0.0398
3826,0.0797
3827,0.0598
3828,0.0996
3829,0.0398
3830,0.0398
3831,-0.0996
3832,0.0000
3833,-0.0398
3834,-0.0598
3835,-0.0598
3836,-0.0797
3837,-0.0398
3838,0.0000
3839,-0.0996
3840,-0.0797
3841,0.0199
3842,0.0199
3843,0.0000
3844,0.0598
3845,0.0598
3846,0.1395
3847,0.1594
3848,0.0797
3849,0.0398
3850,0.0797
3851,0.0398
3852,0.0797
3853,0.0797
3854,0.0398
3855,0.0598
3856,-0.0398
3857,0.0199
3858,0.0199
3859,0.0199
3860,-0.0199
3861,-0.0996
3862,-0.1195
3863,-0.1793
3864,-0.1395
3865,-0.0996
3866,-0.0598
3867,-0.0398
3868,-0.1195
3869,-0.0398
3870,-0.0199
3871,0.0199
3872,-0.0598
3873,-0.1195
3874,-0.1594
3875,-0.1793
3876,-0.1594
3877,-0.1195
3878,-0.0199
3879,0.1195
3880,0.0797
3881,0.0797
3882,0.0996
3883,0.0598
3884,0.0398
3885,0.0996
3886,0.0199
3887,0.1594
3888,0.1594
3889,0.1395
3890,0.0398
3891,0.0199
3892,-0.0199
3893,-0.0598
3894,-0.0199
3895,-0.0398
3896,-0.1195
3897,-0.0398
3898,0.0398
3899,0.0797
3900,0.1195
3901,0.1395
3902,0.0996
3903,0.0199
3904,-0.0398
3905,-0.1195
3906,-0.1195
3907,-0.0797
3908,0.0398
3909,0.0797
3910,0.0598
3911,0.0598
3912,0.0996
3913,0.0199
3914,0.0199
3915,0.0797
3916,-0.0199
3917,-0.0598
3918,-0.0797
3919,-0.1195
3920,-0.0398
3921,0.0000
3922,0.0598
3923,0.1992
3924,0.0797
3925,0.0199
3926,0.0598
3927,0.2191
3928,0.1793
3929,0.0996
3930,-0.0996
3931,-0.1195
3932,-0.1195
3933,-0.1195
3934,-0.0199
3935,0.0199
3936,0.0199
3937,0.0000
3938,0.0598
3939,0.0000
3940,-0.0398
3941,0.0000
3942,0.0000
3943,-0.0598
3944,0.0000
3945,0.0199
3946,0.0000
3947,-0.0797
3948,0.0000
3949,0.0996
3950,0.1195
3951,0.0996
3952,0.1195
3953,0.1594
3954,0.0996
3955,0.0996
3956,0.0797
3957,0.0199
3958,0.0199
3959,-0.1793
3960,-0.2391
3961,-0.1992
3962,-0.2191
3963,-0.0996
3964,-0.0199
3965,0.0598
3966,0.1594
3967,0.1395
3968,0.1992
3969,0.2789
3970,0.2191
3971,0.1793
3972,0.1395
3973,0.0000
3974,-0.0398
3975,-0.1195
3976,-0.1395
3977,-0.1195
3978,-0.1195
3979,-0.1395
3980,-0.1594
3981,-0.1992
3982,-0.0996
3983,0.0598
3984,0.0598
3985,0.0000
3986,-0.0199
3987,-0.1195
3988,-0.2191
3989,-0.2191
3990,-0.1992
3991,-0.2590
3992,-0.2590
3993,-0.1594
3994,-0.1395
3995,-0.0598
3996,-0.0598
3997,-0.0598
3998,-0.0199
3999,-0.0398
4000,-0.0398
4001,-0.0598
4002,-0.0797
4003,0.0000
4004,0.0398
4005,0.0598
4006,-0.0797
4007,-0.1594
4008,-0.1395
4009,-0.0996
4010,-0.0598
4011,-0.0797
4012,-0.0797
4013,-0.1395
4014,-0.1594
4015,-0.1195
4016,-0.0398
4017,0.0000
4018,-0.0598
4019,-0.0996
4020,-0.1195
4021,-0.0797
4022,-0.0996
4023,-0.0199
4024,0.0199
4025,0.0797
4026,0.0797
4027,0.0996
4028,0.0598
4029,0.0996
4030,0.0797
4031,0.0797
4032,0.0797
4033,0.0598
4034,0.0398
4035,-0.0199
4036,-0.1395
4037,-0.1793
4038,-0.0996
4039,-0.0598
4040,-0.0996
4041,-0.0598
4042,0.0000
4043,0.0398
4044,0.0398
4045,0.0797
4046,0.1793
4047,0.0199
4048,-0.0398
4049,-0.0797
4050,-0.1992
4051,-0.1992
4052,-0.1992
4053,-0.1793
4054,-0.2191
4055,-0.2590
4056,-0.1594
4057,-0.1395
4058,-0.1395
4059,-0.1395
4060,-0.0797
4061,-0.0598
4062,-0.1195
4063,-0.0797
4064,-0.0598
4065,-0.1395
4066,-0.1992
4067,-0.1793
4068,-0.2391
4069,-0.1594
4070,-0.0797
4071,-0.0996
4072,-0.0598
4073,-0.0398
4074,-0.1195
4075,-0.1594
4076,-0.0199
4077,0.0199
4078,0.0000
4079,0.0000
4080,0.0199
4081,0.0199
4082,-0.0797
4083,-0.0797
4084,-0.1594
4085,-0.1594
4086,-0.0996
4087,-0.1195
4088,-0.0996
4089,-0.1195
4090,-0.0398
4091,-0.0598
4092,-0.0199
4093,-0.0199
4094,-0.0398
4095,-0.0598
4096,-0.0398
4097,0.0000
4098,0.0199
4099,0.0000
4100,0.0000
4101,0.0000
4102,0.0199
4103,0.0000
4104,0.0598
4105,0.0598
4106,0.0000
4107,0.0000
4108,0.0598
4109,0.0996
4110,0.1594
4111,0.1395
4112,0.0598
4113,0.0000
4114,0.0398
4115,0.1195
4116,0.1793
4117,0.1395
4118,0.2191
4119,0.1992
4120,0.1793
4121,0.1992
4122,0.1594
4123,0.1594
4124,0.0398
4125,0.0598
4126,0.0398
4127,0.0398
4128,0.0199
4129,0.1395
4130,0.2789
4131,0.3188
4132,0.1992
4133,0.1395
4134,0.0996
4135,0.0398
4136,0.0398
4137,0.0398
4138,-0.0398
4139,-0.1395
4140,-0.0996
4141,-0.0199
4142,0.0598
4143,0.0000
4144,0.0000
4145,-0.0996
4146,-0.0598
4147,-0.1195
4148,-0.0598
4149,-0.0199
4150,0.0398
4151,0.0199
4152,0.0398
4153,0.0398
4154,0.0797
4155,0.0797
4156,0.0398
4157,-0.0398
4158,0.0000
4159,-0.0199
4160,-0.0598
4161,0.0000
4162,-0.0598
4163,0.0000
4164,0.0000
4165,-0.0797
4166,-0.0398
4167,0.0000
4168,0.0598
4169,0.0398
4170,0.0398
4171,-0.0398
4172,-0.1395
4173,-0.0797
4174,-0.0398
4175,-0.0398
4176,-0.0199
4177,0.0199
4178,0.0598
4179,0.1992
4180,0.2789
4181,0.2391
4182,0.1195
4183,-0.0199
4184,-0.1195
4185,-0.2391
4186,-0.2391
4187,-0.2391
4188,-0.2391
4189,-0.2789
4190,-0.0996
4191,-0.0598
4192,0.0398
4193,0.1992
4194,0.1992
4195,0.2191
4196,0.2191
4197,0.0996
4198,0.0598
4199,0.0598
4200,0.0598
4201,0.0000
4202,-0.0199
4203,0.0598
4204,0.0797
4205,0.0996
4206,0.1793
4207,0.1992
4208,0.2391
4209,0.1793
4210,0.1195
4211,0.1594
4212,0.2191
4213,0.1395
4214,0.1395
4215,0.0996
4216,0.0000
4217,0.0797
4218,0.1395
4219,0.1793
4220,0.1793
4221,0.0598
4222,0.0000
4223,-0.0199
4224,0.0797
4225,0.0598
4226,0.0797
4227,0.0000
4228,0.0398
4229,0.0199
4230,0.1195
4231,0.1793
4232,0.0996
4233,0.1395
4234,0.1395
4235,-0.0199
4236,0.0199
4237,0.0199
4238,-0.0199
4239,-0.0398
4240,-0.0598
4241,-0.1395
4242,-0.1395
4243,-0.1395
4244,-0.1395
4245,-0.1594
4246,-0.0996
4247,-0.1195
4248,-0.0398
4249,-0.0398
4250,0.0199
4251,-0.0797
4252,-0.0398
4253,-0.0996
4254,-0.0598
4255,-0.0598
4256,0.0199
4257,0.0398
4258,-0.0199
4259,-0.0398
4260,-0.0797
4261,-0.0996
4262,-0.0598
4263,0.0000
4264,-0.0398
4265,-0.0996
4266,-0.1395
4267,-0.1594
4268,-0.1992
4269,-0.2191
4270,-0.1992
4271,-0.1594
4272,-0.2391
4273,-0.1195
4274,0.0199
4275,0.0797
4276,0.1195
4277,0.0199
4278,-0.0398
4279,-0.1594
4280,-0.1594
4281,-0.2590
4282,-0.2789
4283,-0.3984
4284,-0.3586
4285,-0.2590
4286,-0.0996
4287,0.0398
4288,0.0996
4289,0.0398
4290,-0.0598
4291,-0.0199
4292,-0.0996
4293,-0.0996
4294,-0.1395
4295,-0.1195
4296,-0.0797
4297,-0.1992
4298,-0.1992
4299,-0.1793
4300,-0.1395
4301,-0.1793
4302,-0.1195
4303,-0.1594
4304,-0.1395
4305,-0.0398
4306,-0.0199
4307,-0.0199
4308,0.0398
4309,0.0398
4310,0.0000
4311,0.0000
4312,-0.0199
4313,-0.0199
4314,-0.0199
4315,0.0398
4316,0.0398
4317,0.0996
4318,0.1395
4319,0.1395
4320,0.1594
4321,0.1793
4322,0.0996
4323,0.0797
4324,0.0598
4325,0.0996
4326,0.0398
4327,0.0000
4328,-0.0398
4329,0.0000
4330,0.0199
4331,0.0000
4332,0.0598
4333,0.0398
4334,0.0797
4335,0.0598
4336,0.1395
4337,0.1195
4338,0.0996
4339,0.0398
4340,-0.0797
4341,-0.0996
4342,-0.1195
4343,-0.0996
4344,-0.0598
4345,-0.0199
4346,-0.0797
4347,-0.2191
4348,-0.1594
4349,-0.0996
4350,0.0398
4351,0.0797
4352,0.1395
4353,0.1395
4354,0.0797
4355,0.0000
4356,-0.0797
4357,-0.0598
4358,-0.0398
4359,-0.0598
4360,0.0000
4361,0.0000
4362,-0.0598
4363,-0.0199
4364,-0.1594
4365,-0.1395
4366,-0.0797
4367,-0.0996
4368,-0.0996
4369,-0.1195
4370,-0.1793
4371,-0.1195
4372,-0.0797
4373,-0.0797
4374,-0.0598
4375,-0.1195
4376,-0.0996
4377,-0.0199
4378,-0.0199
4379,-0.0199
4380,0.0598
4381,0.0996
4382,0.0598
4383,0.0398
4384,0.0199
4385,0.0398
4386,0.0000
4387,-0.0398
4388,0.0000
4389,0.0598
4390,0.0199
4391,-0.0199
4392,0.0398
4393,0.0199
4394,-0.0199
4395,-0.0996
4396,-0.0398
4397,-0.0598
4398,-0.1195
4399,-0.0797
4400,-0.0598
4401,-0.0598
4402,-0.1195
4403,-0.0797
4404,-0.0398
4405,0.0199
4406,0.0000
4407,0.0398
4408,-0.0398
4409,0.0000
4410,0.0000
4411,0.0598
4412,0.0996
4413,0.1195
4414,0.0996
4415,-0.0398
4416,0.0199
4417,0.0996
4418,0.0598
4419,0.0598
4420,0.0398
4421,-0.0398
4422,-0.0598
4423,-0.0199
4424,0.0199
4425,0.0000
4426,0.1195
4427,0.0996
4428,0.0996
4429,0.1793
4430,0.1395
4431,0.0797
4432,0.0598
4433,0.0797
4434,0.1594
4435,0.1793
4436,0.1793
4437,0.1195
4438,0.0996
4439,0.0398
4440,0.0000
4441,-0.0199
4442,0.0199
4443,-0.0199
4444,-0.0398
4445,-0.0199
4446,0.0598
4447,0.0598
4448,0.0598
4449,0.0996
4450,0.0398
4451,0.0598
4452,0.0000
4453,-0.0398
4454,-0.0199
4455,0.0199
4456,0.0000
4457,-0.0598
4458,-0.0598
4459,0.0000
4460,-0.0199
4461,0.0199
4462,-0.0199
4463,-0.0996
4464,-0.0797
4465,-0.0598
4466,0.0398
4467,0.0598
4468,0.1195
4469,0.1395
4470,0.1395
4471,0.2191
4472,0.1195
4473,0.1195
4474,0.0996
4475,0.1395
4476,0.0398
4477,0.0000
4478,-0.0199
4479,-0.0797
4480,-0.1195
4481,-0.2191
4482,-0.1395
4483,-0.0996
4484,-0.0598
4485,-0.0398
4486,-0.0996
4487,-0.0199
4488,-0.0199
4489,0.0000
4490,0.1395
4491,0.1195
4492,0.0398
4493,0.0000
4494,0.0000
4495,-0.0598
4496,-0.0996
4497,-0.1992
4498,-0.0797
4499,-0.0797
4500,-0.0398
4501,-0.0398
4502,-0.0797
4503,-0.0199
4504,-0.0199
4505,0.0398
4506,-0.0398
4507,-0.0398
4508,-0.0598
4509,-0.0598
4510,-0.0398
4511,-0.0199
4512,-0.0398
4513,-0.0398
4514,-0.0398
4515,-0.0398
4516,-0.0199
4517,0.0199
4518,0.0199
4519,-0.0398
4520,-0.0398
4521,0.0199
4522,-0.0199
4523,0.0000
4524,0.0398
4525,-0.0199
4526,-0.0398
4527,-0.0199
4528,-0.1395
4529,-0.0996
4530,-0.1195
4531,-0.1992
4532,-0.1793
4533,-0.1395
4534,-0.1195
4535,-0.0598
4536,0.0398
4537,0.0398
4538,0.1594
4539,0.0199
4540,-0.0797
4541,-0.1992
4542,-0.1992
4543,-0.1395
4544,-0.1195
4545,-0.0598
4546,0.0398
4547,-0.0199
4548,0.0000
4549,0.0797
4550,0.0797
4551,0.0598
4552,-0.0199
4553,0.0199
4554,0.0398
4555,0.0199
4556,-0.0598
4557,-0.0797
4558,-0.0199
4559,-0.0996
4560,-0.0996
4561,-0.0996
4562,-0.0398
4563,0.0398
4564,0.0598
4565,0.0398
4566,0.0000
4567,-0.0199
4568,0.0398
4569,0.0797
4570,0.1195
4571,0.1395
4572,0.0996
4573,0.1594
4574,0.0797
4575,0.1195
4576,0.0797
4577,0.0996
4578,0.1594
4579,0.1594
4580,0.1395
4581,0.0797
4582,0.0797
4583,0.0996
4584,0.0000
4585,-0.0398
4586,-0.1395
4587,-0.1195
4588,-0.0398
4589,0.0199
4590,0.1793
4591,0.1594
4592,0.1195
4593,0.1594
4594,0.1195
4595,0.1395
4596,0.0598
4597,0.0598
4598,0.0398
4599,0.0398
4600,0.0398
4601,0.0797
4602,0.0996
4603,0.0797
4604,0.0797
4605,0.0598
4606,0.1195
4607,0.1395
4608,0.1395
4609,0.0996
4610,0.0398
4611,0.0199
4612,0.0797
4613,0.1195
4614,0.0598
4615,0.0000
4616,0.0000
4617,0.0000
4618,-0.0398
4619,-0.0199
4620,-0.0797
4621,-0.0797
4622,-0.0398
4623,-0.0398
4624,0.0598
4625,0.0598
4626,0.1195
4627,0.1594
4628,0.2191
4629,0.1594
4630,-0.0398
4631,-0.0797
4632,-0.0996
4633,-0.0996
4634,-0.0996
4635,-0.0996
4636,0.0000
4637,-0.0199
4638,-0.0199
4639,0.0797
4640,0.0398
4641,0.0398
4642,-0.0598
4643,-0.1395
4644,-0.1992
4645,-0.1992
4646,-0.1195
4647,-0.0996
4648,0.0398
4649,0.0797
4650,0.1395
4651,0.0996
4652,0.0598
4653,0.0797
4654,0.0000
4655,0.0398
4656,0.0000
4657,0.0000
4658,-0.0398
4659,-0.0199
4660,0.0398
4661,0.0000
4662,0.0797
4663,0.0398
4664,0.0996
4665,0.1395
4666,0.1395
4667,0.0398
4668,0.0199
4669,-0.0996
4670,-0.1793
4671,-0.1992
4672,-0.1992
4673,-0.1793
4674,-0.1793
4675,-0.1195
4676,-0.0598
4677,0.0797
4678,0.1395
4679,0.0598
4680,-0.0797
4681,-0.1195
4682,-0.2191
4683,-0.1793
4684,-0.1992
4685,-0.2590
4686,-0.2191
4687,-0.1195
4688,-0.0199
4689,-0.0797
4690,-0.0797
4691,-0.0398
4692,-0.0797
4693,-0.0996
4694,-0.1395
4695,-0.1793
4696,-0.1395
4697,-0.1793
4698,-0.1793
4699,-0.1395
4700,-0.0996
4701,-0.0598
4702,0.0000
4703,-0.0398
4704,0.0199
4705,0.0996
4706,0.1395
4707,0.1793
4708,0.2391
4709,0.1793
4710,0.0797
4711,0.0199
4712,-0.0199
4713,-0.0398
4714,-0.0598
4715,-0.1395
4716,-0.1793
4717,-0.0797
4718,0.0000
4719,0.0199
4720,0.0598
4721,0.0996
4722,0.0996
4723,0.1395
4724,0.1395
4725,0.1395
4726,0.0996
4727,0.0797
4728,0.0797
4729,0.0996
4730,0.0996
4731,0.0797
4732,0.1195
4733,0.0797
4734,0.0000
4735,-0.0199
4736,-0.1195
4737,-0.0797
4738,-0.0797
4739,-0.0199
4740,0.0199
4741,-0.0199
4742,0.0199
4743,-0.0199
4744,0.0000
4745,0.0000
4746,-0.0797
4747,-0.1395
4748,-0.0996
4749,-0.1594
4750,-0.0797
4751,-0.0199
4752,-0.1395
4753,-0.1594
4754,-0.1195
4755,-0.1195
4756,-0.0199
4757,-0.0598
4758,0.0199
4759,0.0598
4760,0.0199
4761,0.0398
4762,-0.0398
4763,-0.0398
4764,0.0398
4765,0.0199
4766,0.0199
4767,0.0398
4768,0.0398
4769,-0.0797
4770,-0.0598
4771,-0.0598
4772,-0.0598
4773,-0.0199
4774,0.0199
4775,0.0000
4776,-0.0199
4777,-0.1195
4778,-0.1195
4779,-0.1195
4780,-0.1195
4781,-0.1594
4782,-0.1992
4783,-0.1992
4784,-0.1594
4785,-0.1395
4786,-0.0996
4787,-0.0598
4788,-0.0398
4789,-0.0598
4790,-0.0797
4791,-0.1395
4792,-0.1395
4793,-0.0996
4794,-0.1395
4795,-0.1594
4796,-0.1992
4797,-0.1594
4798,-0.0598
4799,-0.0797
4800,-0.0598
4801,-0.0398
4802,-0.0996
4803,-0.0797
4804,-0.0598
4805,-0.1395
4806,-0.0797
4807,-0.1395
4808,-0.0797
4809,-0.0996
4810,0.0000
4811,0.0598
4812,0.0199
4813,0.0598
4814,0.1594
4815,0.1594
4816,0.1195
4817,0.0797
4818,0.0398
4819,-0.1195
4820,-0.1793
4821,-0.1395
4822,-0.0996
4823,0.0000
4824,0.0797
4825,0.1395
4826,0.2590
4827,0.0996
4828,0.0797
4829,0.0199
4830,0.0000
4831,-0.0598
4832,-0.0996
4833,-0.0797
4834,-0.0598
4835,0.1195
4836,0.1395
4837,0.0996
4838,0.1195
4839,0.1395
4840,0.1395
4841,0.1195
4842,0.1594
4843,0.1195
4844,0.0797
4845,0.0598
4846,0.0000
4847,0.0199
4848,0.0598
4849,0.0000
4850,-0.0199
4851,0.0797
4852,0.1195
4853,0.1793
4854,0.2988
4855,0.2789
4856,0.2789
4857,0.2391
4858,0.2988
4859,0.2590
4860,0.2988
4861,0.3188
4862,0.2391
4863,0.2789
4864,0.2590
4865,0.2789
4866,0.2391
4867,0.2590
4868,0.2988
4869,0.3188
4870,0.2590
4871,0.2789
4872,0.2988
4873,0.2590
4874,0.1992
4875,0.0996
4876,0.1195
4877,-0.0199
4878,-0.0598
4879,-0.1195
4880,-0.0797
4881,-0.0199
4882,0.0000
4883,0.0996
4884,0.0996
4885,0.0598
4886,-0.0398
4887,-0.0797
4888,-0.0598
4889,0.0199
4890,0.0797
4891,0.0598
4892,-0.0199
4893,-0.0199
4894,-0.0199
4895,-0.1195
4896,-0.0996
4897,-0.2789
4898,-0.2789
4899,-0.1594
4900,0.0199
4901,0.0996
4902,-0.0996
4903,-0.1594
4904,-0.1992
4905,-0.1992
4906,-0.1395
4907,-0.1395
4908,-0.1594
4909,-0.2391
4910,-0.2590
4911,-0.2590
4912,-0.1395
4913,-0.0797
4914,-0.0797
4915,-0.0996
4916,-0.1395
4917,-0.1195
4918,0.0000
4919,-0.0797
4920,-0.0996
4921,-0.0598
4922,-0.0199
4923,0.0000
4924,0.0598
4925,0.0398
4926,-0.0598
4927,-0.0598
4928,-0.0797
4929,-0.1195
4930,-0.1395
4931,-0.1195
4932,-0.1594
4933,-0.0797
4934,-0.0598
4935,-0.0598
4936,0.0996
4937,0.0598
4938,0.0797
4939,0.1195
4940,0.0598
4941,-0.0199
4942,-0.1395
4943,-0.1594
4944,-0.1395
4945,-0.1195
4946,-0.1395
4947,-0.0797
4948,-0.0797
4949,0.0000
4950,0.1195
4951,0.1195
4952,0.1594
4953,0.0797
4954,0.0398
4955,-0.0598
4956,-0.0598
4957,-0.0996
4958,-0.0996
4959,-0.0598
4960,-0.0598
4961,-0.1195
4962,-0.0797
4963,-0.0398
4964,-0.0398
4965,0.0797
4966,0.1594
4967,0.1395
4968,0.1395
4969,0.2391
4970,0.3188
4971,0.2789
4972,0.1594
4973,0.0797
4974,-0.0199
4975,-0.0398
4976,-0.1195
4977,-0.1395
4978,-0.1594
4979,-0.0797
4980,-0.0996
4981,0.1195
4982,0.2391
4983,0.1992
4984,0.0996
4985,0.0598
4986,0.0996
4987,0.1195
4988,0.0598
4989,-0.0199
4990,-0.0996
4991,0.0199
4992,-0.0199
4993,0.0199
4994,-0.0598
4995,-0.0398
4996,0.0000
4997,0.0000
4998,0.0598
4999,0.1395
5000,0.1395
5001,0.1395
5002,0.0398
5003,0.0797
5004,-0.0199
5005,-0.0797
5006,-0.1195
5007,-0.1395
5008,-0.1992
5009,-0.1195
5010,-0.0199
5011,0.0996
5012,0.0797
5013,-0.0199
5014,-0.0598
5015,-0.0598
5016,-0.0797
5017,-0.1195
5018,-0.0598
5019,0.0199
5020,0.0199
5021,-0.0199
5022,0.0598
5023,0.1594
5024,0.1793
5025,0.2789
5026,0.1395
5027,0.0598
5028,-0.0199
5029,-0.0598
5030,-0.0996
5031,-0.1395
5032,-0.0797
5033,-0.0598
5034,-0.0996
5035,-0.0598
5036,0.0598
5037,0.0598
5038,0.0000
5039,0.0996
5040,0.1594
5041,0.1992
5042,0.2789
5043,0.1793
5044,0.0199
5045,0.0000
5046,-0.1793
5047,-0.2590
5048,-0.2789
5049,-0.3785
5050,-0.2590
5051,-0.0797
5052,-0.0398
5053,0.0000
5054,0.0797
5055,0.1395
5056,0.0996
5057,-0.0398
5058,-0.0598
5059,-0.0996
5060,-0.0199
5061,-0.0996
5062,-0.1195
5063,-0.0996
5064,-0.0797
5065,-0.0598
5066,0.0000
5067,-0.0199
5068,-0.0199
5069,-0.0797
5070,-0.1793
5071,-0.2789
5072,-0.1793
5073,-0.0996
5074,-0.1992
5075,-0.1195
5076,-0.0996
5077,0.0398
5078,0.0996
5079,0.0996
5080,0.0797
5081,0.0797
5082,0.0199
5083,-0.0199
5084,-0.0398
5085,-0.1195
5086,-0.1594
5087,-0.1395
5088,-0.0398
5089,-0.0199
5090,0.0398
5091,0.0797
5092,0.0996
5093,0.0199
5094,0.0000
5095,0.0000
5096,-0.0398
5097,-0.0598
5098,-0.0199
5099,-0.0199
5100,0.0598
5101,0.0598
5102,0.1195
5103,0.1793
5104,0.1395
5105,0.1793
5106,0.1594
5107,0.0797
5108,0.1395
5109,0.1395
5110,0.1793
5111,0.0996
5112,0.0598
5113,0.0000
5114,-0.0996
5115,-0.0996
5116,-0.1793
5117,-0.2391
5118,-0.2391
5119,-0.2590
5120,-0.2590
5121,-0.1594
5122,-0.1395
5123,-0.0598
5124,0.0398
5125,0.0797
5126,0.1195
5127,0.1793
5128,0.1195
5129,0.0598
5130,0.0000
5131,0.0199
5132,0.0199
5133,0.0000
5134,-0.0398
5135,-0.0398
5136,0.0000
5137,-0.0398
5138,0.0797
5139,0.1395
5140,0.0797
5141,-0.0598
5142,-0.0996
5143,-0.1395
5144,-0.1195
5145,0.0199
5146,0.0199
5147,0.0199
5148,0.0000
5149,-0.0398
5150,-0.0398
5151,-0.0598
5152,-0.0797
5153,0.0199
5154,-0.0398
5155,-0.0398
5156,-0.1195
5157,-0.0996
5158,0.0398
5159,0.0398
5160,-0.0398
5161,-0.1195
5162,-0.1395
5163,-0.0398
5164,0.0000
5165,-0.0598
5166,-0.0199
5167,-0.0598
5168,-0.1793
5169,-0.0996
5170,0.0000
5171,0.0199
5172,-0.0199
5173,-0.0199
5174,0.0598
5175,0.0598
5176,0.0996
5177,0.0598
5178,0.1793
5179,0.1594
5180,0.0598
5181,-0.0598
5182,-0.0199
5183,-0.0199
5184,-0.0199
5185,0.0996
5186,0.1395
5187,0.0996
5188,0.1395
5189,0.1992
5190,0.2590
5191,0.3785
5192,0.3188
5193,0.3785
5194,0.2988
5195,0.3188
5196,0.2391
5197,0.1992
5198,0.2391
5199,0.1395
5200,0.0797
5201,0.0398
5202,0.0199
5203,-0.0797
5204,-0.0797
5205,-0.0199
5206,-0.0199
5207,-0.0398
5208,0.0996
5209,0.1992
5210,0.2391
5211,0.2191
5212,0.2590
5213,0.2191
5214,0.0199
5215,-0.0398
5216,-0.0398
5217,-0.1195
5218,0.0000
5219,0.0000
5220,0.0598
5221,0.0000
5222,0.0000
5223,-0.0398
5224,0.0000
5225,0.0000
5226,-0.0199
5227,0.0797
5228,0.1195
5229,0.0797
5230,0.1195
5231,0.1395
5232,0.0797
5233,0.0797
5234,0.1195
5235,0.0598
5236,0.0598
5237,0.0000
5238,0.0000
5239,0.0000
5240,0.0199
5241,0.0996
5242,0.0996
5243,0.1395
5244,0.0996
5245,0.1793
5246,0.0996
5247,0.0398
5248,-0.0398
5249,-0.1594
5250,-0.2191
5251,-0.2988
5252,-0.2391
5253,-0.1594
5254,-0.1992
5255,-0.1594
5256,-0.1395
5257,-0.1594
5258,-0.0199
5259,-0.0996
5260,0.0199
5261,0.0199
5262,-0.0398
5263,0.0000
5264,-0.0398
5265,-0.0199
5266,-0.0797
5267,-0.1992
5268,-0.2391
5269,-0.1793
5270,-0.1195
5271,-0.0797
5272,-0.0598
5273,0.1195
5274,-0.0398
5275,-0.0398
5276,-0.0598
5277,-0.0598
5278,-0.0797
5279,-0.0598
5280,0.0000
5281,-0.0398
5282,0.0000
5283,0.0199
5284,0.0598
5285,-0.0797
5286,-0.1594
5287,-0.2391
5288,-0.2590
5289,-0.2789
5290,-0.2988
5291,-0.1594
5292,-0.0996
5293,-0.1594
5294,-0.2191
5295,-0.1195
5296,-0.0398
5297,-0.0199
5298,-0.0398
5299,-0.0797
5300,-0.0797
5301,-0.0996
5302,-0.1594
5303,-0.1395
5304,-0.2191
5305,-0.1992
5306,-0.1992
5307,-0.1594
5308,-0.0996
5309,-0.0598
5310,0.0398
5311,0.0797
5312,-0.0199
5313,0.0398
5314,-0.0199
5315,0.1195
5316,0.1195
5317,0.0996
5318,0.0000
5319,0.0199
5320,-0.0398
5321,0.0199
5322,0.0398
5323,0.0000
5324,0.0000
5325,-0.0398
5326,-0.0199
5327,0.0199
5328,0.0996
5329,0.1195
5330,0.1793
5331,0.0199
5332,-0.0797
5333,-0.0797
5334,-0.1992
5335,-0.1793
5336,-0.1395
5337,-0.1395
5338,-0.0797
5339,0.0000
5340,0.0598
5341,0.0598
5342,0.0000
5343,0.0000
5344,0.0598
5345,0.0598
5346,0.0398
5347,0.0797
5348,0.0797
5349,0.0598
5350,0.0797
5351,0.0598
5352,-0.0199
5353,-0.0398
5354,-0.0996
5355,-0.0797
5356,0.0398
5357,0.0199
5358,0.0199
5359,-0.0797
5360,-0.1395
5361,-0.0398
5362,-0.0797
5363,-0.0797
5364,-0.0398
5365,-0.0797
5366,-0.0398
5367,-0.0199
5368,-0.0598
5369,-0.0598
5370,-0.0598
5371,0.0000
5372,-0.0199
5373,0.0199
5374,0.0199
5375,0.0598
5376,0.0199
5377,-0.0398
5378,-0.0996
5379,-0.0199
5380,-0.0398
5381,-0.0398
5382,-0.0797
5383,-0.0398
5384,-0.0598
5385,0.0199
5386,0.0598
5387,0.0598
5388,0.0199
5389,-0.0199
5390,-0.0398
5391,-0.0398
5392,0.0199
5393,0.0398
5394,0.0000
5395,0.0000
5396,-0.0398
5397,-0.0398
5398,-0.1195
5399,-0.0797
5400,-0.0996
5401,-0.0598
5402,0.0000
5403,-0.0199
5404,0.0598
5405,0.1395
5406,0.1992
5407,0.1992
5408,0.1594
5409,0.1395
5410,0.0598
5411,0.0797
5412,-0.0199
5413,-0.0199
5414,-0.0598
5415,-0.0199
5416,0.0598
5417,-0.0199
5418,-0.0199
5419,-0.0199
5420,0.0000
5421,-0.0996
5422,-0.1395
5423,-0.1793
5424,-0.1395
5425,-0.1992
5426,-0.2191
5427,-0.1793
5428,-0.0598
5429,0.0000
5430,-0.0398
5431,-0.0199
5432,0.0000
5433,0.0000
5434,-0.0398
5435,-0.0996
5436,0.0000
5437,-0.0199
5438,0.0598
5439,0.0199
5440,0.0797
5441,0.2191
5442,0.2191
5443,0.1395
5444,0.0598
5445,0.0199
5446,0.0398
5447,0.0398
5448,0.0398
5449,0.0996
5450,0.0398
5451,0.0000
5452,0.0199
5453,0.0000
5454,0.0000
5455,0.0398
5456,-0.0398
5457,-0.0398
5458,0.0996
5459,0.1195
5460,0.2391
5461,0.1793
5462,0.2789
5463,0.2590
5464,0.1793
5465,0.0598
5466,0.0797
5467,-0.0199
5468,-0.0996
5469,-0.0797
5470,-0.1793
5471,-0.0996
5472,-0.0598
5473,-0.0199
5474,-0.0598
5475,-0.0996
5476,-0.1195
5477,-0.1594
5478,-0.0996
5479,-0.0797
5480,-0.0996
5481,-0.1195
5482,0.0000
5483,0.0598
5484,0.0797
5485,0.0996
5486,0.0996
5487,0.0996
5488,0.0398
5489,-0.0398
5490,-0.0797
5491,-0.0398
5492,-0.0598
5493,-0.0996
5494,-0.0996
5495,-0.0398
5496,0.0398
5497,0.1395
5498,0.1195
5499,0.0598
5500,0.0398
5501,0.0000
5502,-0.0199
5503,0.0398
5504,0.0398
5505,-0.0398
5506,-0.1594
5507,-0.1594
5508,-0.1793
5509,-0.1395
5510,-0.1195
5511,-0.0996
5512,-0.0199
5513,0.0797
5514,0.0996
5515,0.0996
5516,0.0996
5517,0.1195
5518,0.1395
5519,0.0598
5520,-0.0398
5521,-0.0996
5522,-0.1195
5523,-0.0996
5524,-0.1395
5525,-0.0996
5526,-0.0996
5527,-0.0797
5528,0.0398
5529,0.0598
5530,0.0398
5531,0.0199
5532,0.0000
5533,0.0000
5534,-0.0199
5535,-0.0797
5536,-0.0598
5537,-0.1594
5538,-0.0398
5539,0.1195
5540,0.1195
5541,0.0199
5542,-0.0398
5543,-0.0398
5544,0.0000
5545,0.0199
5546,0.0996
5547,0.1395
5548,0.1195
5549,0.2988
5550,0.2191
5551,0.1395
5552,0.2391
5553,0.2789
5554,0.1992
5555,0.0996
5556,-0.0996
5557,-0.1992
5558,-0.1793
5559,-0.2789
5560,-0.2191
5561,-0.0996
5562,-0.1195
5563,-0.0996
5564,-0.0996
5565,0.0199
5566,0.1195
5567,0.0797
5568,0.0199
5569,0.0199
5570,0.0797
5571,0.0398
5572,0.0598
5573,0.0598
5574,0.0996
5575,0.0398
5576,0.0199
5577,0.0398
5578,0.0996
5579,0.0996
5580,0.1992
5581,0.1992
5582,0.1992
5583,0.2391
5584,0.2590
5585,0.2590
5586,0.2191
5587,0.1395
5588,0.0598
5589,-0.0199
5590,-0.0797
5591,-0.0398
5592,-0.1594
5593,-0.1594
5594,-0.0996
5595,-0.0797
5596,-0.0398
5597,0.0000
5598,-0.0398
5599,-0.1395
5600,-0.1793
5601,-0.1594
5602,-0.1395
5603,-0.0996
5604,-0.0996
5605,-0.0598
5606,0.0000
5607,-0.0398
5608,0.0398
5609,0.0598
5610,0.0797
5611,0.0398
5612,0.0398
5613,0.0797
5614,0.0598
5615,-0.0199
5616,0.0000
5617,-0.0199
5618,0.0398
5619,-0.0797
5620,-0.1195
5621,-0.1195
5622,-0.0996
5623,-0.0797
5624,0.0398
5625,0.0797
5626,0.1195
5627,0.0199
5628,0.0598
5629,0.0398
5630,0.0398
5631,-0.0598
5632,-0.0996
5633,-0.0996
5634,-0.0996
5635,-0.0598
5636,-0.0398
5637,0.0000
5638,0.0398
5639,0.0199
5640,-0.0398
5641,0.0000
5642,-0.1195
5643,-0.0996
5644,-0.1395
5645,-0.1395
5646,-0.0797
5647,0.0199
5648,0.0996
5649,0.1992
5650,0.1793
5651,0.0996
5652,0.0797
5653,0.0398
5654,-0.0398
5655,-0.0199
5656,0.0000
5657,0.0000
5658,-0.0199
5659,-0.0797
5660,-0.1195
5661,-0.1992
5662,-0.1395
5663,-0.0199
5664,0.1395
5665,0.1195
5666,0.0598
5667,-0.0398
5668,-0.1195
5669,-0.1195
5670,-0.0996
5671,-0.1195
5672,-0.0996
5673,-0.1395
5674,-0.1395
5675,-0.1195
5676,-0.1992
5677,-0.1395
5678,-0.1195
5679,-0.1992
5680,-0.2391
5681,-0.1992
5682,-0.1395
5683,-0.0598
5684,0.0199
5685,0.0996
5686,0.1992
5687,0.1992
5688,0.1793
5689,0.0398
5690,-0.1195
5691,-0.1793
5692,-0.3188
5693,-0.2391
5694,-0.2988
5695,-0.2391
5696,-0.1793
5697,-0.0797
5698,0.0199
5699,0.0398
5700,0.0598
5701,0.0996
5702,0.0598
5703,0.0797
5704,-0.0199
5705,0.0000
5706,0.0199
5707,0.0598
5708,0.1594
5709,0.1395
5710,0.0797
5711,-0.0598
5712,-0.0797
5713,-0.0199
5714,-0.0598
5715,-0.0598
5716,0.0199
5717,0.0199
5718,0.0996
5719,0.0398
5720,-0.0598
5721,-0.0598
5722,0.0000
5723,0.0398
5724,0.0199
5725,0.0199
5726,0.0398
5727,0.0398
5728,0.1594
5729,0.1395
5730,0.1395
5731,0.0996
5732,0.0199
5733,0.0398
5734,-0.0199
5735,-0.0797
5736,-0.0797
5737,-0.0398
5738,-0.0199
5739,0.0000
5740,-0.0199
5741,-0.0199
5742,-0.0797
5743,0.0598
5744,0.0199
5745,0.0000
5746,0.1793
5747,0.1395
5748,0.0996
5749,0.0000
5750,0.0000
5751,-0.0398
5752,-0.0598
5753,0.0000
5754,0.0199
5755,0.0598
5756,0.0598
5757,0.0199
5758,-0.0199
5759,-0.0598
5760,-0.1195
5761,-0.1395
5762,-0.0598
5763,-0.0598
5764,-0.0199
5765,-0.0797
5766,-0.1395
5767,-0.1195
5768,-0.1594
5769,-0.1195
5770,-0.1793
5771,-0.1195
5772,-0.1594
5773,-0.0797
5774,-0.0398
5775,0.0000
5776,-0.0598
5777,0.0000
5778,-0.0199
5779,-0.0199
5780,-0.0398
5781,-0.0398
5782,-0.1195
5783,-0.1594
5784,-0.1793
5785,-0.1395
5786,-0.0598
5787,-0.0398
5788,0.0000
5789,0.0996
5790,0.1793
5791,0.1395
5792,0.1992
5793,0.1395
5794,0.0199
5795,-0.0398
5796,-0.0199
5797,-0.0797
5798,-0.0996
5799,-0.0996
5800,-0.0996
5801,-0.0398
5802,-0.0398
5803,0.0199
5804,0.0000
5805,0.0598
5806,0.1195
5807,0.1395
5808,0.1195
5809,-0.0199
5810,0.0598
5811,0.0199
5812,0.0000
5813,0.0199
5814,0.0199
5815,0.0398
5816,0.0598
5817,0.0398
5818,0.0598
5819,0.0797
5820,0.0598
5821,0.0996
5822,0.0797
5823,0.0797
5824,0.0398
5825,0.0398
5826,-0.0199
5827,-0.0398
5828,-0.0398
5829,0.0000
5830,0.0398
5831,0.0797
5832,0.0398
5833,0.0797
5834,0.0996
5835,0.1395
5836,0.0398
5837,0.0199
5838,-0.0398
5839,-0.0398
5840,0.0398
5841,0.1195
5842,0.1395
5843,0.0996
5844,0.0398
5845,0.0000
5846,0.0199
5847,0.0000
5848,0.0199
5849,0.0199
5850,-0.0398
5851,-0.0797
5852,-0.1195
5853,-0.0797
5854,-0.0996
5855,-0.1195
5856,-0.0797
5857,-0.0598
5858,0.1195
5859,0.1594
5860,0.0996
5861,0.0199
5862,0.0000
5863,-0.0398
5864,-0.1195
5865,-0.1195
5866,-0.0797
5867,-0.1594
5868,-0.0797
5869,-0.0199
5870,0.0000
5871,-0.0797
5872,0.0000
5873,0.0398
5874,0.0398
5875,0.0000
5876,-0.0199
5877,-0.1195
5878,-0.1594
5879,-0.1395
5880,-0.0598
5881,-0.0199
5882,0.0598
5883,0.0598
5884,-0.0398
5885,-0.0398
5886,0.0398
5887,0.0996
5888,0.0797
5889,0.0398
5890,0.0000
5891,0.0797
5892,0.1195
5893,0.1793
5894,0.1195
5895,0.0996
5896,0.0598
5897,0.0797
5898,0.1195
5899,0.0199
5900,0.0000
5901,-0.0199
5902,0.0000
5903,0.0199
5904,-0.0199
5905,0.0000
5906,-0.0199
5907,-0.0199
5908,0.0000
5909,0.0797
5910,0.1395
5911,0.0996
5912,0.0797
5913,0.0598
5914,0.0199
5915,-0.0199
5916,0.0598
5917,0.0797
5918,0.1395
5919,0.1195
5920,0.2789
5921,0.3984
5922,0.2191
5923,0.2191
5924,0.1395
5925,0.0996
5926,0.0797
5927,-0.0398
5928,-0.0199
5929,0.0199
5930,0.0199
5931,-0.0598
5932,-0.0199
5933,0.0797
5934,0.1594
5935,0.1594
5936,0.0996
5937,0.0398
5938,0.0797
5939,0.1594
5940,0.0398
5941,0.0398
5942,0.0199
5943,0.0398
5944,-0.0398
5945,-0.0797
5946,0.0000
5947,-0.0598
5948,-0.0797
5949,-0.1395
5950,-0.0797
5951,0.0398
5952,0.0199
5953,-0.0996
5954,-0.0797
5955,-0.0398
5956,-0.0598
5957,-0.0996
5958,-0.0797
5959,-0.0598
5960,-0.0797
5961,-0.0996
5962,-0.0996
5963,-0.0598
5964,0.0000
5965,0.1793
5966,0.1992
5967,0.1395
5968,0.0996
5969,-0.0199
5970,-0.0598
5971,-0.0598
5972,-0.0598
5973,-0.0398
5974,-0.0797
5975,-0.2789
5976,-0.2191
5977,-0.0996
5978,-0.0996
5979,0.0199
5980,0.1594
5981,0.3188
5982,0.1992
5983,0.0598
5984,-0.0398
5985,0.0000
5986,-0.0199
5987,-0.0797
5988,-0.0199
5989,0.0000
5990,0.0996
5991,0.1395
5992,0.1594
5993,0.1195
5994,0.2590
5995,0.2191
5996,0.0797
5997,0.0398
5998,0.0996
5999,0.0996
6000,0.1395
6001,0.0797
6002,0.0598
6003,0.1395
6004,0.1195
6005,0.0398
6006,0.0000
6007,-0.0199
6008,0.0199
6009,0.0199
6010,-0.0199
6011,-0.0398
6012,0.0000
6013,0.1395
6014,0.1594
6015,0.1195
6016,0.0797
6017,0.0797
6018,0.0199
6019,-0.0797
6020,-0.0996
6021,-0.1992
6022,-0.1992
6023,-0.2590
6024,-0.2391
6025,-0.2391
6026,-0.2590
6027,-0.2590
6028,-0.2789
6029,-0.3387
6030,-0.2789
6031,-0.1992
6032,-0.0996
6033,-0.1992
6034,-0.2988
6035,-0.3188
6036,-0.2590
6037,-0.2988
6038,-0.1195
6039,0.0000
6040,-0.0996
6041,-0.1195
6042,-0.0199
6043,0.0398
6044,0.0199
6045,0.1793
6046,0.1793
6047,0.0797
6048,0.0598
6049,0.0797
6050,0.1594
6051,0.1395
6052,0.0996
6053,0.2590
6054,0.2789
6055,0.1992
6056,0.0598
6057,-0.0797
6058,-0.1195
6059,0.0000
6060,0.1195
6061,0.1594
6062,0.1793
6063,0.1395
6064,0.0199
6065,-0.0598
6066,-0.0996
6067,-0.2391
6068,-0.3984
6069,-0.4383
6070,-0.3586
6071,-0.2590
6072,-0.1992
6073,-0.2590
6074,-0.1594
6075,-0.0398
6076,-0.0199
6077,0.0000
6078,0.0199
6079,0.0199
6080,-0.0199
6081,0.0000
6082,-0.0598
6083,-0.1793
6084,-0.1793
6085,-0.1594
6086,-0.0797
6087,0.0000
6088,0.1594
6089,0.1594
6090,0.2590
6091,0.2590
6092,0.1594
6093,0.0797
6094,0.0199
6095,0.0000
6096,-0.0199
6097,-0.0598
6098,0.1793
6099,0.0598
6100,-0.0199
6101,-0.0398
6102,0.0000
6103,0.0398
6104,0.0000
6105,-0.0797
6106,-0.0996
6107,-0.0797
6108,0.0000
6109,0.0000
6110,0.0797
6111,0.0996
6112,0.0000
6113,0.0199
6114,0.0996
6115,0.0598
6116,0.0000
6117,-0.0598
6118,-0.1195
6119,-0.1195
6120,-0.1195
6121,-0.1395
6122,-0.0996
6123,-0.0598
6124,0.0000
6125,0.0199
6126,0.1195
6127,0.1395
6128,0.0598
6129,0.0199
6130,0.0000
6131,0.0199
6132,0.0398
6133,0.0199
6134,0.0996
6135,0.1594
6136,0.1992
6137,0.0797
6138,0.0000
6139,-0.0398
6140,-0.0996
6141,-0.0398
6142,0.0000
6143,0.0797
6144,-0.0797
6145,-0.0996
6146,-0.0996
6147,-0.0598
6148,-0.0598
6149,-0.1195
6150,-0.1594
6151,-0.1793
6152,-0.0797
6153,-0.1195
6154,-0.1395
6155,-0.0598
6156,-0.1594
6157,-0.1594
6158,-0.1395
6159,-0.0797
6160,-0.0797
6161,-0.0797
6162,-0.0797
6163,-0.0996
6164,-0.1195
6165,-0.2191
6166,-0.1992
6167,-0.1793
6168,-0.1395
6169,-0.1594
6170,-0.2789
6171,-0.2988
6172,-0.2988
6173,-0.1992
6174,-0.1594
6175,-0.0996
6176,-0.1793
6177,-0.1594
6178,-0.2191
6179,-0.3387
6180,-0.3387
6181,-0.3984
6182,-0.3984
6183,-0.3387
6184,-0.2391
6185,-0.2391
6186,-0.2391
6187,-0.1992
6188,-0.1594
6189,-0.1395
6190,-0.1594
6191,-0.2191
6192,-0.1793
6193,-0.1594
6194,-0.1395
6195,-0.0598
6196,-0.0398
6197,-0.0598
6198,0.0199
6199,0.0797
6200,0.0996
6201,-0.0598
6202,-0.0996
6203,-0.0996
6204,-0.1395
6205,-0.1992
6206,-0.2191
6207,-0.1793
6208,-0.1395
6209,-0.1992
6210,-0.1195
6211,0.0598
6212,0.0996
6213,0.0598
6214,0.1395
6215,0.1793
6216,0.1594
6217,0.1594
6218,0.1992
6219,0.0996
6220,0.1195
6221,0.1195
6222,0.0398
6223,-0.0598
6224,-0.1195
6225,0.0598
6226,0.1195
6227,0.2391
6228,0.2988
6229,0.3188
6230,0.2988
6231,0.2988
6232,0.2191
6233,0.1992
6234,0.1594
6235,0.1594
6236,0.1395
6237,0.2191
6238,0.2191
6239,0.1992
6240,0.2789
6241,0.1992
6242,0.1992
6243,0.2191
6244,0.1594
6245,0.2191
6246,0.1195
6247,0.1395
6248,0.1793
6249,0.0598
6250,-0.0398
6251,-0.0199
6252,0.0797
6253,0.0996
6254,0.1992
6255,0.0996
6256,0.1594
6257,0.2191
6258,0.2789
6259,0.3188
6260,0.3984
6261,0.4582
6262,0.2191
6263,0.0996
6264,-0.0398
6265,-0.1195
6266,-0.0199
6267,-0.0797
6268,-0.0797
6269,-0.0398
6270,-0.0797
6271,-0.0598
6272,-0.0199
6273,-0.0598
6274,-0.1395
6275,-0.0398
6276,0.0000
6277,-0.0598
6278,-0.0398
6279,-0.0598
6280,-0.1594
6281,-0.1395
6282,-0.1395
6283,-0.0996
6284,-0.0996
6285,-0.1793
6286,-0.2590
6287,-0.2590
6288,-0.2988
6289,-0.1395
6290,-0.0398
6291,0.0398
6292,0.0000
6293,0.0398
6294,0.0000
6295,0.0000
6296,-0.0598
6297,-0.0598
6298,-0.0598
6299,-0.0996
6300,-0.0598
6301,0.1195
6302,0.1395
6303,0.0598
6304,-0.0199
6305,-0.0598
6306,-0.0797
6307,-0.0199
6308,-0.0996
6309,-0.0598
6310,-0.0199
6311,-0.0598
6312,-0.0398
6313,0.0000
6314,-0.0199
6315,-0.0598
6316,-0.0199
6317,0.0398
6318,0.0797
6319,0.2191
6320,0.2391
6321,0.2391
6322,0.1992
6323,0.1395
6324,0.0996
6325,0.0398
6326,0.0797
6327,0.0996
6328,0.0398
6329,-0.1594
6330,-0.2191
6331,-0.1594
6332,-0.0996
6333,-0.1395
6334,-0.1594
6335,-0.0598
6336,0.1195
6337,0.1793
6338,0.1793
6339,0.2191
6340,0.2391
6341,0.2590
6342,0.1395
6343,0.1395
6344,0.0598
6345,-0.0398
6346,-0.0797
6347,0.0000
6348,0.0000
6349,0.0000
6350,0.0398
6351,0.1395
6352,0.2391
6353,0.3188
6354,0.2789
6355,0.2191
6356,0.0797
6357,0.0199
6358,-0.0398
6359,0.0000
6360,0.0199
6361,0.0000
6362,0.0398
6363,0.2391
6364,0.2988
6365,0.2988
6366,0.2391
6367,0.1793
6368,0.0598
6369,0.0797
6370,0.0398
6371,0.0797
6372,-0.0598
6373,-0.0996
6374,-0.0996
6375,-0.0598
6376,-0.0996
6377,-0.0598
6378,0.0199
6379,0.0996
6380,0.0797
6381,0.1395
6382,0.1992
6383,0.2789
6384,0.1992
6385,0.0996
6386,0.0797
6387,0.0598
6388,-0.0398
6389,0.0398
6390,0.0398
6391,0.0797
6392,0.0996
6393,0.0598
6394,0.0996
6395,0.2391
6396,0.1594
6397,0.1395
6398,0.0996
6399,0.0398
6400,0.0199
6401,-0.0598
6402,-0.0996
6403,-0.1195
6404,-0.1793
6405,-0.2789
6406,-0.1395
6407,-0.0797
6408,0.0398
6409,0.0199
6410,0.0598
6411,0.0199
6412,-0.0797
6413,-0.0598
6414,0.0000
6415,0.0398
6416,0.0598
6417,0.0398
6418,0.0797
6419,0.0199
6420,0.0398
6421,0.0398
6422,0.0398
6423,0.0797
6424,0.0398
6425,0.1395
6426,0.0996
6427,0.1195
6428,0.1992
6429,0.1395
6430,-0.0199
6431,-0.1395
6432,-0.1594
6433,-0.1793
6434,-0.1992
6435,-0.1793
6436,-0.0996
6437,-0.0199
6438,-0.0398
6439,-0.0199
6440,-0.0199
6441,-0.0199
6442,-0.0598
6443,-0.0996
6444,-0.1594
6445,-0.0797
6446,-0.0797
6447,-0.1594
6448,-0.1992
6449,-0.1195
6450,-0.1195
6451,-0.2191
6452,-0.1195
6453,0.0199
6454,-0.0797
6455,-0.0797
6456,-0.0199
6457,0.0797
6458,0.1793
6459,0.1594
6460,0.1793
6461,0.1992
6462,0.0598
6463,0.0199
6464,-0.1395
6465,-0.1195
6466,-0.0398
6467,-0.0398
6468,-0.0398
6469,-0.0598
6470,-0.1195
6471,-0.1395
6472,-0.2391
6473,-0.1594
6474,-0.2191
6475,-0.1395
6476,-0.1594
6477,-0.0598
6478,0.0598
6479,0.0398
6480,0.0598
6481,0.0797
6482,0.0398
6483,0.0598
6484,0.0000
6485,0.0000
6486,-0.0598
6487,-0.0398
6488,-0.0797
6489,0.0000
6490,0.0797
6491,0.1195
6492,0.0996
6493,0.0598
6494,0.1395
6495,0.1395
6496,0.1793
6497,0.0398
6498,0.0199
6499,0.0000
6500,-0.0797
6501,-0.0797
6502,-0.0598
6503,-0.1395
6504,-0.1395
6505,-0.0398
6506,-0.0199
6507,-0.0199
6508,0.0598
6509,0.0000
6510,-0.0199
6511,0.0598
6512,0.0797
6513,0.1395
6514,0.1594
6515,0.0598
6516,0.1195
6517,0.1594
6518,0.1195
6519,-0.0598
6520,-0.0797
6521,0.0000
6522,-0.0398
6523,0.0000
6524,-0.0797
6525,-0.0797
6526,-0.1594
6527,-0.0598
6528,0.0996
6529,0.1395
6530,0.0996
6531,0.1195
6532,0.0398
6533,-0.0398
6534,-0.0996
6535,-0.1594
6536,-0.3188
6537,-0.2191
6538,0.0000
6539,0.1195
6540,0.0398
6541,-0.0598
6542,-0.2391
6543,-0.2590
6544,-0.2391
6545,-0.2391
6546,-0.2391
6547,-0.1793
6548,-0.0996
6549,-0.0797
6550,-0.0199
6551,0.0000
6552,-0.0598
6553,0.0398
6554,-0.0598
6555,-0.2191
6556,-0.1793
6557,-0.1195
6558,-0.1195
6559,-0.1395
6560,-0.0598
6561,-0.0996
6562,-0.1594
6563,-0.0797
6564,-0.0398
6565,-0.0398
6566,-0.0996
6567,-0.0598
6568,-0.0398
6569,-0.0598
6570,-0.0398
6571,-0.0199
6572,-0.0199
6573,-0.0797
6574,-0.1195
6575,-0.1594
6576,-0.1395
6577,-0.0598
6578,0.0199
6579,0.0199
6580,0.0000
6581,0.0598
6582,0.0000
6583,-0.0199
6584,-0.0398
6585,-0.0598
6586,-0.0598
6587,-0.0598
6588,-0.0398
6589,0.0000
6590,0.0398
6591,0.0598
6592,0.1195
6593,0.0797
6594,0.0398
6595,-0.0199
6596,-0.1195
6597,-0.0996
6598,-0.0996
6599,-0.0199
6600,0.0598
6601,-0.0598
6602,-0.0996
6603,-0.0398
6604,0.0398
6605,0.0598
6606,-0.0598
6607,-0.1992
6608,-0.1793
6609,-0.1992
6610,-0.1992
6611,-0.1992
6612,-0.1793
6613,-0.0996
6614,-0.1395
6615,-0.1195
6616,-0.1594
6617,-0.0797
6618,-0.0598
6619,-0.0398
6620,-0.0996
6621,-0.1395
6622,-0.0996
6623,-0.1594
6624,-0.1992
6625,-0.1992
6626,-0.1793
6627,-0.0598
6628,-0.0797
6629,0.0398
6630,0.1395
6631,0.1594
6632,0.1395
6633,0.0797
6634,0.0398
6635,0.0398
6636,0.0000
6637,-0.0398
6638,-0.0598
6639,-0.1195
6640,-0.1195
6641,-0.1395
6642,-0.0598
6643,0.0000
6644,0.0000
6645,0.0000
6646,0.0199
6647,0.0598
6648,0.1395
6649,0.0996
6650,0.0598
6651,0.0398
6652,-0.0199
6653,-0.0398
6654,0.0199
6655,-0.0199
6656,-0.0996
6657,-0.0797
6658,0.0598
6659,0.1395
6660,0.1793
6661,0.1992
6662,0.1793
6663,0.2191
6664,0.3586
6665,0.3785
6666,0.4184
6667,0.3984
6668,0.4184
6669,0.3188
6670,0.2988
6671,0.1992
6672,0.1594
6673,0.1793
6674,0.1195
6675,0.0598
6676,0.0398
6677,-0.0199
6678,0.0000
6679,0.0398
6680,0.0996
6681,0.2191
6682,0.2191
6683,0.2590
6684,0.1992
6685,0.2590
6686,0.2988
6687,0.2191
6688,0.1594
6689,0.1395
6690,0.1793
6691,0.1195
6692,0.0199
6693,0.0000
6694,0.0199
6695,0.0996
6696,0.0797
6697,0.0598
6698,0.0199
6699,0.0598
6700,0.0598
6701,0.0598
6702,0.0398
6703,0.0797
6704,0.0000
6705,-0.0797
6706,-0.0199
6707,-0.0199
6708,0.0000
6709,-0.0398
6710,-0.0598
6711,0.0000
6712,-0.0199
6713,0.0398
6714,0.0797
6715,0.0598
6716,0.0996
6717,0.1195
6718,0.1793
6719,0.1195
6720,0.1992
6721,0.2191
6722,0.1594
6723,0.0996
6724,0.0598
6725,0.1992
6726,0.0996
6727,-0.0398
6728,-0.2191
6729,-0.3188
6730,-0.2789
6731,-0.1395
6732,-0.0598
6733,0.0000
6734,-0.0199
6735,-0.1195
6736,-0.1395
6737,-0.1195
6738,-0.0199
6739,0.0398
6740,0.0996
6741,0.0398
6742,0.1195
6743,0.1594
6744,0.1992
6745,0.2391
6746,0.1594
6747,0.1395
6748,0.2191
6749,0.1594
6750,0.0996
6751,0.0000
6752,-0.1395
6753,-0.1195
6754,-0.1395
6755,-0.1195
6756,-0.1395
6757,-0.1793
6758,-0.0996
6759,0.0000
6760,0.0598
6761,0.0996
6762,0.0598
6763,0.0598
6764,0.0598
6765,-0.0398
6766,-0.0797
6767,-0.1594
6768,-0.1395
6769,-0.0996
6770,-0.0996
6771,-0.0598
6772,-0.1195
6773,-0.0996
6774,-0.0199
6775,0.0598
6776,0.0797
6777,0.0598
6778,0.0398
6779,0.0199
6780,0.0797
6781,0.0598
6782,-0.0598
6783,-0.0797
6784,-0.0996
6785,-0.0199
6786,0.0199
6787,0.0398
6788,-0.0199
6789,-0.0199
6790,-0.0199
6791,-0.0199
6792,0.0000
6793,-0.0598
6794,-0.0797
6795,-0.1594
6796,-0.1793
6797,-0.0996
6798,-0.1195
6799,-0.1992
6800,-0.1992
6801,-0.1395
6802,-0.0598
6803,0.0000
6804,0.0000
6805,0.0398
6806,0.0199
6807,-0.0398
6808,-0.0398
6809,-0.1195
6810,-0.2590
6811,-0.3387
6812,-0.3387
6813,-0.3785
6814,-0.3387
6815,-0.1793
6816,-0.1395
6817,-0.1195
6818,-0.1195
6819,0.0199
6820,0.0398
6821,0.0000
6822,-0.0996
6823,-0.0996
6824,-0.1793
6825,-0.2191
6826,-0.2391
6827,-0.2988
6828,-0.2590
6829,-0.3188
6830,-0.2590
6831,-0.0996
6832,-0.0797
6833,-0.0996
6834,-0.1195
6835,-0.1793
6836,-0.1395
6837,-0.0996
6838,-0.1395
6839,-0.1195
6840,-0.1395
6841,-0.1195
6842,-0.0398
6843,-0.0598
6844,-0.1395
6845,-0.0996
6846,-0.1195
6847,-0.1992
6848,-0.1395
6849,-0.1395
6850,-0.1195
6851,-0.0797
6852,-0.0598
6853,0.0598
6854,0.0199
6855,0.0598
6856,0.0598
6857,0.0199
6858,0.0398
6859,-0.0398
6860,0.0000
6861,-0.0398
6862,-0.0398
6863,0.0000
6864,-0.0598
6865,-0.0797
6866,-0.0797
6867,0.0199
6868,0.1195
6869,0.2391
6870,0.1992
6871,0.1793
6872,0.1594
6873,0.0996
6874,0.0000
6875,-0.0598
6876,-0.1395
6877,-0.1195
6878,-0.1395
6879,-0.1395
6880,-0.0598
6881,0.0598
6882,0.1992
6883,0.1395
6884,0.2789
6885,0.2988
6886,0.2789
6887,0.1793
6888,0.1195
6889,0.0996
6890,0.1195
6891,0.0797
6892,0.0000
6893,0.0199
6894,0.0199
6895,0.0996
6896,0.1395
6897,0.1195
6898,0.1395
6899,0.0797
6900,-0.0398
6901,0.0000
6902,-0.0996
6903,-0.0598
6904,-0.0398
6905,-0.0398
6906,-0.0398
6907,0.0000
6908,-0.0199
6909,-0.0598
6910,0.0199
6911,-0.0199
6912,0.0199
6913,0.0598
6914,0.0598
6915,0.0199
6916,0.0598
6917,0.0598
6918,0.1195
6919,0.1395
6920,0.1793
6921,0.1195
6922,0.0000
6923,0.0000
6924,0.0199
6925,0.0199
6926,0.0199
6927,0.0797
6928,-0.0398
6929,0.0797
6930,0.0797
6931,0.0398
6932,-0.0199
6933,0.0797
6934,0.0199
6935,0.0000
6936,-0.0398
6937,0.0598
6938,0.1395
6939,-0.0199
6940,-0.0598
6941,-0.0598
6942,-0.0996
6943,-0.1793
6944,-0.1195
6945,-0.0598
6946,-0.0598
6947,0.0000
6948,0.0598
6949,0.1195
6950,0.0598
6951,0.0996
6952,0.0000
6953,0.0199
6954,0.0000
6955,0.0797
6956,0.1195
6957,0.0797
6958,0.0797
6959,0.1195
6960,0.0996
6961,0.0598
6962,0.0598
6963,0.0398
6964,0.0000
6965,0.0199
6966,0.0000
6967,-0.0598
6968,0.0598
6969,0.1992
6970,0.1594
6971,0.0996
6972,0.0199
6973,0.0199
6974,0.0199
6975,-0.0996
6976,-0.0598
6977,-0.0598
6978,-0.0199
6979,-0.0996
6980,-0.1395
6981,-0.0199
6982,-0.0797
6983,-0.0199
6984,-0.0598
6985,0.0000
6986,0.0000
6987,0.0797
6988,0.0996
6989,0.1395
6990,0.1395
6991,0.1195
6992,0.0598
6993,-0.0598
6994,-0.0398
6995,0.0199
6996,0.0000
6997,-0.0598
6998,-0.2191
6999,-0.4582
7000,-0.3984
7001,-0.2988
7002,-0.2590
7003,-0.1395
7004,-0.0398
7005,0.0598
7006,0.1992
7007,0.1395
7008,0.0398
7009,0.0199
7010,0.0598
7011,0.0398
7012,0.1195
7013,0.1395
7014,0.1793
7015,0.1793
7016,0.0398
7017,-0.0598
7018,-0.0996
7019,-0.2391
7020,-0.2590
7021,-0.2590
7022,-0.2789
7023,-0.2988
7024,-0.2590
7025,-0.2191
7026,-0.1395
7027,-0.0996
7028,0.0000
7029,0.0000
7030,0.0000
7031,0.1195
7032,0.1992
7033,0.1992
7034,0.0996
7035,0.0996
7036,0.0996
7037,0.0797
7038,0.0598
7039,0.0598
7040,-0.0398
7041,-0.0398
7042,-0.0398
7043,0.0199
7044,-0.0398
7045,0.0797
7046,0.0996
7047,0.1793
7048,0.1395
7049,-0.0398
7050,-0.0598
7051,-0.0797
7052,-0.0398
7053,-0.0598
7054,0.0199
7055,0.0598
7056,0.1195
7057,0.1395
7058,0.1793
7059,0.2191
7060,0.2590
7061,0.2590
7062,0.1992
7063,0.0797
7064,0.0598
7065,0.0000
7066,0.1195
7067,-0.0199
7068,0.0199
7069,0.0000
7070,-0.0199
7071,0.1195
7072,0.1793
7073,0.1395
7074,0.0996
7075,0.0598
7076,0.0797
7077,0.0398
7078,0.0398
7079,0.0398
7080,0.0398
7081,0.0398
7082,-0.0398
7083,-0.0996
7084,0.0598
7085,0.0598
7086,0.0598
7087,0.0398
7088,0.1594
7089,0.1395
7090,0.0797
7091,-0.0398
7092,-0.0398
7093,-0.0398
7094,-0.0398
7095,-0.0398
7096,0.0199
7097,0.0598
7098,0.1793
7099,0.0398
7100,0.0398
7101,0.0996
7102,0.0797
7103,0.0598
7104,0.0199
7105,0.0000
7106,-0.0199
7107,0.0199
7108,0.0199
7109,0.0598
7110,0.1195
7111,0.1395
7112,0.0797
7113,0.1195
7114,0.0199
7115,0.0199
7116,-0.0199
7117,-0.0199
7118,-0.0598
7119,-0.0398
7120,-0.0199
7121,0.0000
7122,0.0199
7123,-0.0199
7124,-0.0398
7125,-0.0996
7126,-0.0598
7127,-0.0996
7128,-0.0797
7129,-0.0996
7130,0.0000
7131,-0.0797
7132,-0.1793
7133,-0.1395
7134,-0.1594
7135,-0.1594
7136,-0.0996
7137,-0.0797
7138,-0.0199
7139,-0.0398
7140,0.0000
7141,-0.0199
7142,0.1195
7143,0.1395
7144,0.0199
7145,0.0000
7146,-0.0996
7147,-0.1195
7148,-0.1195
7149,-0.1195
7150,-0.1195
7151,-0.1793
7152,-0.1594
7153,-0.1594
7154,-0.0797
7155,-0.0199
7156,-0.0199
7157,-0.0199
7158,0.0797
7159,0.0797
7160,0.1395
7161,0.0598
7162,-0.0199
7163,-0.0996
7164,-0.1195
7165,-0.1793
7166,-0.0797
7167,-0.1395
7168,-0.0598
7169,-0.0797
7170,-0.1793
7171,-0.1395
7172,-0.1395
7173,-0.1594
7174,-0.0797
7175,-0.0598
7176,0.0199
7177,0.0199
7178,0.0598
7179,-0.0398
7180,-0.0199
7181,-0.0199
7182,-0.0797
7183,-0.1195
7184,-0.1793
7185,-0.2391
7186,-0.1992
7187,-0.1395
7188,-0.0797
7189,-0.0598
7190,-0.0199
7191,0.0199
7192,-0.0797
7193,0.0000
7194,-0.0199
7195,0.0199
7196,0.0000
7197,-0.0598
7198,-0.0996
7199,-0.0598
7200,-0.0398
7201,-0.0598
7202,-0.0797
7203,-0.0797
7204,-0.0398
7205,-0.0199
7206,-0.0199
7207,0.0398
7208,0.0996
7209,0.0398
7210,0.0398
7211,0.0199
7212,-0.0199
7213,0.0000
7214,-0.0398
7215,0.1793
7216,0.1395
7217,0.0199
7218,-0.0199
7219,-0.0598
7220,-0.0797
7221,0.0598
7222,0.0797
7223,0.0797
7224,0.0797
7225,0.1395
7226,0.0797
7227,0.0598
7228,0.0797
7229,0.0398
7230,0.0598
7231,0.0398
7232,0.0000
7233,-0.0199
7234,0.0598
7235,0.1594
7236,0.1195
7237,0.0797
7238,0.0797
7239,0.0797
7240,0.0797
7241,0.1594
7242,0.1793
7243,0.1594
7244,0.1195
7245,0.1195
7246,0.0598
7247,-0.0797
7248,-0.1195
7249,-0.1195
7250,-0.0996
7251,0.0000
7252,-0.0398
7253,0.0000
7254,-0.0398
7255,-0.0199
7256,0.0199
7257,0.0199
7258,0.0797
7259,0.0996
7260,0.1195
7261,0.0398
7262,0.0199
7263,0.0199
7264,0.0000
7265,0.0000
7266,-0.0199
7267,0.0000
7268,0.0398
7269,-0.0199
7270,0.0000
7271,-0.0398
7272,-0.0398
7273,-0.0199
7274,0.0199
7275,-0.0199
7276,0.0199
7277,0.0598
7278,-0.0199
7279,-0.0398
7280,-0.0398
7281,-0.0797
7282,-0.1594
7283,-0.0996
7284,-0.1594
7285,-0.1395
7286,-0.1395
7287,-0.2391
7288,-0.2988
7289,-0.2590
7290,-0.2191
7291,-0.1195
7292,-0.0398
7293,-0.0199
7294,-0.0398
7295,-0.0996
7296,-0.0996
7297,-0.0398
7298,-0.0996
7299,-0.0398
7300,-0.0797
7301,-0.0398
7302,-0.0797
7303,-0.0797
7304,-0.0996
7305,-0.1395
7306,-0.1992
7307,-0.0996
7308,-0.0398
7309,0.0000
7310,0.0598
7311,0.0598
7312,-0.0598
7313,-0.0398
7314,-0.0398
7315,0.0199
7316,0.1195
7317,0.1195
7318,-0.0199
7319,-0.0199
7320,-0.0598
7321,-0.0797
7322,-0.0996
7323,-0.0598
7324,-0.0996
7325,-0.1395
7326,-0.1992
7327,-0.1594
7328,-0.0797
7329,-0.0398
7330,-0.0199
7331,0.0199
7332,0.0598
7333,0.0398
7334,0.0000
7335,0.0996
7336,0.1195
7337,0.1395
7338,0.0598
7339,-0.0996
7340,-0.1395
7341,-0.1594
7342,-0.2191
7343,-0.1395
7344,-0.1594
7345,-0.1395
7346,-0.0398
7347,0.0000
7348,-0.0199
7349,0.0598
7350,0.0598
7351,0.0996
7352,-0.0199
7353,-0.0398
7354,-0.0797
7355,-0.1195
7356,-0.1594
7357,-0.2191
7358,-0.2391
7359,-0.3188
7360,-0.3188
7361,-0.1992
7362,-0.1793
7363,-0.1195
7364,-0.1793
7365,-0.1594
7366,-0.1195
7367,-0.0996
7368,-0.0199
7369,0.0398
7370,0.0996
7371,0.0598
7372,0.0199
7373,0.0598
7374,0.0000
7375,-0.0398
7376,-0.0598
7377,-0.0996
7378,-0.1195
7379,-0.1992
7380,-0.2191
7381,-0.0996
7382,-0.0797
7383,-0.0199
7384,0.0199
7385,0.0398
7386,0.1395
7387,0.1195
7388,0.1992
7389,0.1793
7390,0.2191
7391,0.0398
7392,0.0598
7393,0.0598
7394,-0.0398
7395,-0.0996
7396,-0.1195
7397,-0.0398
7398,0.0199
7399,-0.0398
7400,-0.0199
7401,-0.0199
7402,-0.0199
7403,0.0199
7404,0.0199
7405,0.0398
7406,0.0598
7407,0.1395
7408,0.1395
7409,0.0398
7410,0.0797
7411,0.0996
7412,0.0996
7413,0.1594
7414,0.1793
7415,0.1594
7416,0.0996
7417,0.0199
7418,0.0598
7419,0.0598
7420,0.0797
7421,0.1395
7422,0.0398
7423,-0.0199
7424,0.0199
7425,0.0199
7426,0.0199
7427,-0.0398
7428,-0.0598
7429,-0.0996
7430,-0.0598
7431,0.0000
7432,0.0199
7433,0.1195
7434,0.2590
7435,0.2789
7436,0.2988
7437,0.2988
7438,0.2391
7439,0.2391
7440,0.2391
7441,0.0797
7442,-0.0797
7443,-0.1594
7444,-0.2391
7445,-0.3188
7446,-0.2391
7447,-0.1594
7448,-0.2391
7449,-0.2988
7450,-0.2191
7451,-0.0996
7452,0.0598
7453,0.1395
7454,0.0996
7455,0.0996
7456,0.0598
7457,0.1195
7458,0.1395
7459,0.0797
7460,0.0598
7461,0.0199
7462,0.0000
7463,0.0398
7464,0.0199
7465,0.0598
7466,0.0996
7467,0.0797
7468,0.0797
7469,0.1395
7470,0.1195
7471,0.1395
7472,0.0996
7473,0.1395
7474,0.0598
7475,0.0398
7476,0.0598
7477,-0.0598
7478,-0.0199
7479,0.0000
7480,0.0398
7481,0.0797
7482,0.1195
7483,0.1594
7484,0.1793
7485,0.2391
7486,0.1594
7487,0.1195
7488,0.0598
7489,0.0398
7490,0.0797
7491,0.0199
7492,0.0598
7493,0.0797
7494,0.0598
7495,0.0000
7496,0.0797
7497,0.0398
7498,-0.0797
7499,-0.1992
7500,-0.1594
7501,-0.1395
7502,-0.1594
7503,-0.0199
7504,-0.0199
7505,0.0797
7506,0.1793
7507,0.0598
7508,0.0000
7509,0.0199
7510,0.0000
7511,0.0797
7512,0.0996
7513,0.1793
7514,0.1195
7515,0.0996
7516,0.0398
7517,0.0000
7518,0.0000
7519,-0.0398
7520,-0.0199
7521,-0.0797
7522,-0.0598
7523,-0.0598
7524,0.0199
7525,0.0598
7526,0.0797
7527,-0.0199
7528,-0.0199
7529,-0.0398
7530,0.0598
7531,0.1195
7532,0.1594
7533,0.0996
7534,0.1195
7535,0.0398
7536,0.0398
7537,-0.0398
7538,-0.0199
7539,0.0797
7540,0.0000
7541,0.0398
7542,0.0797
7543,0.1195
7544,0.0598
7545,0.0199
7546,-0.0598
7547,-0.0996
7548,-0.1195
7549,-0.0996
7550,-0.0598
7551,-0.0398
7552,-0.0797
7553,-0.1395
7554,-0.1594
7555,-0.0797
7556,-0.0398
7557,0.0398
7558,0.0797
7559,0.0797
7560,0.0797
7561,0.0797
7562,0.0996
7563,0.0797
7564,-0.0797
7565,-0.1594
7566,-0.1594
7567,-0.0996
7568,0.0000
7569,0.0996
7570,0.1793
7571,0.2590
7572,0.1793
7573,0.1195
7574,0.0797
7575,0.1594
7576,0.1594
7577,0.0996
7578,0.0000
7579,-0.0797
7580,-0.0598
7581,-0.0598
7582,-0.0598
7583,0.0797
7584,0.1195
7585,0.0996
7586,0.1195
7587,0.1594
7588,0.0398
7589,0.0199
7590,0.0199
7591,0.0000
7592,-0.0199
7593,-0.0199
7594,-0.0797
7595,-0.0199
7596,0.0598
7597,0.0996
7598,0.0398
7599,0.0398
7600,0.0598
7601,0.0598
7602,0.0398
7603,0.0598
7604,0.0598
7605,0.0598
7606,0.0797
7607,0.0000
7608,0.0000
7609,-0.0996
7610,-0.1395
7611,-0.1793
7612,-0.1594
7613,-0.1594
7614,-0.1992
7615,-0.0996
7616,-0.0797
7617,-0.0996
7618,-0.1594
7619,-0.0598
7620,-0.0598
7621,0.0398
7622,0.1395
7623,0.0000
7624,-0.0598
7625,-0.0398
7626,-0.1395
7627,-0.1395
7628,-0.2191
7629,-0.2191
7630,-0.2191
7631,-0.1594
7632,-0.0996
7633,-0.0398
7634,0.0598
7635,0.0797
7636,0.0398
7637,0.0199
7638,0.0000
7639,-0.0398
7640,-0.0598
7641,-0.0996
7642,-0.1594
7643,-0.1992
7644,-0.1793
7645,-0.0797
7646,0.0598
7647,0.0199
7648,0.0996
7649,0.0598
7650,0.0598
7651,0.0199
7652,-0.0797
7653,-0.0398
7654,0.0199
7655,0.0000
7656,-0.0199
7657,-0.0199
7658,0.0996
7659,0.0797
7660,0.0199
7661,-0.1195
7662,-0.1793
7663,-0.1195
7664,-0.0199
7665,-0.0398
7666,-0.0797
7667,-0.1793
7668,-0.1395
7669,-0.0598
7670,-0.0398
7671,-0.0398
7672,-0.0199
7673,0.0398
7674,0.0199
7675,0.0000
7676,0.0199
7677,0.0598
7678,0.0199
7679,0.1195
7680,0.1195
7681,0.0797
7682,-0.0199
7683,-0.0398
7684,-0.0797
7685,0.0199
7686,-0.0199
7687,-0.0199
7688,0.0598
7689,0.0000
7690,-0.1395
7691,-0.0996
7692,-0.1992
7693,-0.2191
7694,-0.2391
7695,-0.2789
7696,-0.1594
7697,-0.1992
7698,-0.1594
7699,-0.1992
7700,-0.0996
7701,-0.0398
7702,-0.1195
7703,-0.1793
7704,-0.1594
7705,-0.0797
7706,-0.0398
7707,-0.1195
7708,-0.0996
7709,-0.0797
7710,-0.0598
7711,-0.0797
7712,-0.0996
7713,-0.1195
7714,-0.0797
7715,0.0000
7716,0.0598
7717,0.0996
7718,0.0797
7719,-0.0199
7720,-0.0996
7721,-0.1195
7722,-0.1395
7723,-0.1992
7724,-0.2191
7725,-0.2191
7726,-0.0598
7727,0.0199
7728,0.0598
7729,0.0000
7730,0.0398
7731,0.0996
7732,0.0598
7733,0.0398
7734,0.0000
7735,0.0996
7736,0.0199
7737,0.0996
7738,0.1395
7739,0.0996
7740,0.1195
7741,0.1195
7742,0.1793
7743,0.2191
7744,0.1195
7745,0.0996
7746,0.0598
7747,0.0000
7748,0.0199
7749,-0.0398
7750,0.0199
7751,-0.0598
7752,-0.0797
7753,0.0199
7754,0.0199
7755,0.0398
7756,0.0797
7757,0.0398
7758,0.0598
7759,-0.0598
7760,0.0398
7761,0.1594
7762,0.1594
7763,0.0199
7764,-0.0996
7765,-0.1793
7766,-0.2590
7767,-0.2789
7768,-0.1992
7769,-0.1594
7770,-0.1395
7771,-0.0996
7772,0.0000
7773,0.0598
7774,0.0199
7775,-0.0398
7776,-0.0797
7777,-0.0996
7778,-0.1395
7779,-0.1195
7780,-0.0996
7781,-0.0996
7782,-0.1395
7783,-0.1793
7784,-0.1992
7785,-0.1594
7786,-0.1594
7787,-0.1395
7788,-0.0598
7789,-0.1992
7790,-0.1793
7791,-0.0797
7792,-0.0398
7793,0.0797
7794,-0.0598
7795,-0.2191
7796,-0.3387
7797,-0.2988
7798,-0.2590
7799,-0.1395
7800,-0.1395
7801,-0.1395
7802,-0.1195
7803,-0.1992
7804,-0.0996
7805,-0.0797
7806,-0.0598
7807,-0.0199
7808,-0.0199
7809,-0.0598
7810,-0.0199
7811,0.0000
7812,0.0000
7813,-0.0797
7814,-0.0996
7815,-0.0797
7816,-0.1195
7817,-0.0199
7818,-0.0398
7819,0.0199
7820,0.0598
7821,0.0598
7822,0.0598
7823,0.0398
7824,0.0598
7825,0.0000
7826,0.0000
7827,-0.0199
7828,0.0398
7829,0.0000
7830,-0.0398
7831,0.0000
7832,-0.0398
7833,0.0199
7834,0.0598
7835,0.0199
7836,0.0996
7837,0.0797
7838,0.0996
7839,0.0398
7840,-0.0199
7841,-0.1195
7842,-0.1594
7843,-0.0398
7844,-0.1793
7845,-0.2191
7846,-0.1992
7847,-0.1195
7848,-0.0398
7849,0.0000
7850,-0.0398
7851,-0.0199
7852,0.0797
7853,0.1594
7854,0.1594
7855,0.0996
7856,0.0797
7857,0.0398
7858,0.1395
7859,0.1594
7860,0.1793
7861,0.1195
7862,-0.0398
7863,-0.0598
7864,-0.0199
7865,0.0000
7866,-0.0199
7867,-0.0199
7868,0.0199
7869,0.0398
7870,0.0398
7871,0.0598
7872,0.0996
7873,0.0996
7874,0.0398
7875,0.0398
7876,-0.0199
7877,-0.0398
7878,-0.0797
7879,-0.0598
7880,0.0199
7881,0.0199
7882,0.0199
7883,0.0199
7884,-0.0199
7885,-0.0996
7886,-0.1395
7887,-0.1594
7888,-0.1395
7889,-0.0598
7890,0.0000
7891,-0.0598
7892,0.0000
7893,0.0398
7894,0.0598
7895,-0.0199
7896,0.0398
7897,0.0199
7898,0.1195
7899,0.1992
7900,0.2789
7901,0.2191
7902,0.0598
7903,0.0199
7904,-0.0797
7905,-0.1594
7906,-0.2191
7907,-0.2391
7908,-0.1395
7909,-0.1395
7910,-0.1395
7911,-0.1195
7912,0.0199
7913,-0.0398
7914,-0.0598
7915,-0.1195
7916,-0.1195
7917,-0.0996
7918,-0.0199
7919,0.0996
7920,0.0598
7921,-0.0199
7922,-0.0996
7923,-0.0398
7924,-0.1992
7925,-0.3387
7926,-0.3188
7927,-0.2391
7928,-0.1992
7929,-0.0996
7930,0.0199
7931,0.2391
7932,0.1992
7933,0.0598
7934,0.0598
7935,0.1395
7936,0.0996
7937,-0.0199
7938,-0.0797
7939,-0.0797
7940,-0.0598
7941,0.0398
7942,0.0199
7943,0.0996
7944,0.0996
7945,0.0398
7946,0.0398
7947,-0.0199
7948,0.0199
7949,-0.0199
7950,-0.0199
7951,0.0199
7952,0.0398
7953,0.0199
7954,0.0398
7955,0.0398
7956,0.0797
7957,0.0598
7958,0.0996
7959,0.1195
7960,0.0199
7961,0.0199
7962,0.0598
7963,0.0797
7964,0.0797
7965,0.0598
7966,0.1395
7967,0.1195
7968,0.1395
7969,0.1395
7970,0.1195
7971,0.0398
7972,0.0598
7973,0.1594
7974,0.0598
7975,0.0398
7976,-0.0398
7977,-0.0398
7978,0.0398
7979,-0.0598
7980,-0.0199
7981,0.0797
7982,0.1195
7983,0.1594
7984,0.1594
7985,0.1992
7986,0.1594
7987,0.1195
7988,0.0996
7989,0.0000
7990,-0.0797
7991,0.0000
7992,0.0598
7993,0.1195
7994,0.1594
7995,0.1594
7996,0.1594
7997,0.0996
7998,0.0598
7999,0.0598
8000,0.0996
8001,0.1594
8002,0.2391
8003,0.1992
8004,0.1195
8005,0.0000
8006,-0.0398
8007,-0.1195
8008,-0.1793
8009,-0.1992
8010,-0.1395
8011,-0.0199
8012,-0.0398
8013,0.0000
8014,-0.0398
8015,-0.0598
8016,-0.0598
8017,-0.0996
8018,-0.0598
8019,-0.0797
8020,-0.1395
8021,-0.0797
8022,-0.1395
8023,-0.1395
8024,-0.1594
8025,-0.2590
8026,-0.1793
8027,-0.1594
8028,-0.0996
8029,-0.0797
8030,-0.0199
8031,-0.0398
8032,-0.0598
8033,-0.0199
8034,-0.0398
8035,0.0398
8036,0.0199
8037,0.0398
8038,-0.0398
8039,-0.0199
8040,-0.0797
8041,-0.0598
8042,0.0199
8043,0.0598
8044,0.0398
8045,0.0398
8046,0.0797
8047,0.0598
8048,0.0996
8049,0.0199
8050,0.0199
8051,0.0398
8052,-0.0797
8053,-0.0398
8054,0.0000
8055,-0.0598
8056,-0.0598
8057,-0.0598
8058,0.0000
8059,0.0996
8060,0.0996
8061,0.0000
8062,-0.0398
8063,-0.0996
8064,-0.1594
8065,-0.1992
8066,-0.2191
8067,-0.2590
8068,-0.0996
8069,-0.1594
8070,-0.2191
8071,-0.2191
8072,-0.1594
8073,-0.1594
8074,-0.1195
8075,-0.0398
8076,0.0996
8077,0.0598
8078,0.0398
8079,0.0199
8080,0.0199
8081,0.0598
8082,-0.0398
8083,-0.0797
8084,-0.0996
8085,-0.1594
8086,-0.1395
8087,-0.0996
8088,0.0000
8089,0.0598
8090,0.0398
8091,0.1195
8092,0.0996
8093,0.1195
8094,0.1195
8095,0.0996
8096,0.1395
8097,0.0797
8098,0.0598
8099,0.0797
8100,0.0996
8101,0.0797
8102,0.0398
8103,0.0000
8104,0.0199
8105,0.0199
8106,0.0598
8107,0.0996
8108,0.1594
8109,0.1395
8110,0.0996
8111,0.0797
8112,0.0199
8113,0.0797
8114,0.1395
8115,0.0797
8116,0.0398
8117,0.0199
8118,0.0000
8119,0.0398
8120,0.0398
8121,0.0398
8122,0.0199
8123,0.0797
8124,0.0996
8125,0.1395
8126,0.1195
8127,0.0797
8128,0.0000
8129,-0.0598
8130,-0.0797
8131,-0.1195
8132,-0.1992
8133,-0.0598
8134,0.0000
8135,-0.0199
8136,-0.0398
8137,-0.0199
8138,0.0000
8139,-0.0199
8140,-0.0598
8141,-0.1594
8142,-0.1793
8143,-0.1594
8144,-0.0996
8145,-0.0398
8146,-0.0398
8147,-0.0598
8148,-0.1195
8149,-0.1395
8150,-0.1195
8151,-0.1594
8152,-0.1395
8153,-0.0797
8154,0.0000
8155,0.0398
8156,0.0996
8157,0.0598
8158,0.1395
8159,0.0996
8160,0.1594
8161,0.1793
8162,0.2191
8163,0.2789
8164,0.2590
8165,0.1395
8166,0.0996
8167,0.0996
8168,0.0797
8169,0.0398
8170,0.0000
8171,-0.0398
8172,-0.0598
8173,-0.0199
8174,0.0398
8175,0.0996
8176,0.0598
8177,0.0199
8178,0.0398
8179,-0.0598
8180,-0.0996
8181,-0.0996
8182,-0.1195
8183,-0.1793
8184,-0.0996
8185,-0.1195
8186,-0.0598
8187,-0.0996
8188,0.0398
8189,0.1195
8190,0.1992
8191,0.2191
8192,0.1992
8193,0.2191
8194,0.2191
8195,0.1992
8196,0.1793
8197,0.1594
8198,0.1594
8199,0.1594
8200,0.1594
8201,0.0598
8202,0.0000
8203,0.0199
8204,-0.0199
8205,-0.0598
8206,0.0000
8207,0.0996
8208,0.1395
8209,0.0598
8210,-0.0398
8211,-0.0598
8212,-0.1195
8213,-0.0598
8214,-0.1195
8215,-0.1195
8216,-0.0996
8217,-0.1195
8218,-0.1395
8219,-0.1395
8220,-0.1395
8221,-0.0996
8222,-0.0797
8223,-0.0199
8224,0.0199
8225,0.0398
8226,0.0000
8227,-0.1195
8228,-0.0398
8229,-0.0797
8230,-0.1195
8231,-0.0398
8232,0.0199
8233,0.0199
8234,0.0598
8235,0.0598
8236,0.1395
8237,0.1793
8238,0.2590
8239,0.2590
8240,0.2191
8241,0.0996
8242,0.0797
8243,-0.0598
8244,-0.1195
8245,-0.2590
8246,-0.2988
8247,-0.2988
8248,-0.1594
8249,-0.1195
8250,-0.0598
8251,0.0000
8252,0.0398
8253,0.0398
8254,0.0199
8255,0.0000
8256,0.1195
8257,0.0797
8258,0.1594
8259,0.1793
8260,0.1594
8261,0.2191
8262,0.2391
8263,0.0996
8264,0.1195
8265,0.0797
8266,0.0598
8267,0.0598
8268,0.0398
8269,0.0398
8270,0.0598
8271,0.1793
8272,0.1594
8273,0.1594
8274,0.1992
8275,0.1992
8276,0.1594
8277,0.1395
8278,0.1195
8279,0.0598
8280,0.0398
8281,0.0199
8282,0.0598
8283,0.1195
8284,0.0797
8285,-0.0598
8286,-0.0398
8287,0.0199
8288,0.0996
8289,0.0797
8290,0.0598
8291,-0.0598
8292,-0.1395
8293,-0.2590
8294,-0.1594
8295,-0.0598
8296,0.0199
8297,0.0199
8298,-0.0598
8299,-0.1395
8300,0.0000
8301,0.0199
8302,0.0797
8303,0.1793
8304,0.1793
8305,0.0996
8306,0.0598
8307,-0.0199
8308,-0.1195
8309,-0.1395
8310,-0.1594
8311,-0.1594
8312,-0.0398
8313,0.0598
8314,0.1195
8315,0.1992
8316,0.2988
8317,0.2789
8318,0.2191
8319,0.0398
8320,-0.0199
8321,-0.0996
8322,-0.1594
8323,-0.1992
8324,-0.1992
8325,-0.2191
8326,-0.2590
8327,-0.1594
8328,-0.0199
8329,0.0199
8330,0.0000
8331,-0.0398
8332,-0.1195
8333,-0.1195
8334,-0.1594
8335,-0.1395
8336,-0.1793
8337,-0.0996
8338,-0.1793
8339,-0.1793
8340,-0.0996
8341,-0.1195
8342,-0.0996
8343,-0.1395
8344,-0.1793
8345,-0.1395
8346,-0.1395
8347,-0.1395
8348,-0.1594
8349,-0.0996
8350,-0.0797
8351,-0.0797
8352,-0.1195
8353,-0.1395
8354,-0.2191
8355,-0.1793
8356,-0.1195
8357,-0.0996
8358,0.0199
8359,0.0797
8360,0.0797
8361,0.0797
8362,0.2191
8363,0.2988
8364,0.2789
8365,0.2391
8366,0.1395
8367,0.0199
8368,-0.0199
8369,-0.0398
8370,-0.0797
8371,-0.0797
8372,-0.0598
8373,-0.0598
8374,0.0996
8375,0.2191
8376,0.2191
8377,0.1395
8378,0.0199
8379,0.0398
8380,0.1195
8381,0.0996
8382,-0.0398
8383,0.0000
8384,0.0398
8385,-0.1195
8386,-0.0398
8387,0.0000
8388,0.0598
8389,0.0000
8390,0.0598
8391,0.0000
8392,0.0398
8393,0.0598
8394,0.0199
8395,0.0000
8396,-0.0398
8397,-0.0199
8398,-0.0398
8399,-0.1395
8400,-0.1992
8401,-0.1395
8402,-0.1992
8403,-0.1195
8404,-0.1195
8405,-0.1395
8406,-0.1594
8407,-0.2191
8408,-0.1992
8409,-0.1793
8410,-0.0996
8411,-0.1195
8412,-0.1195
8413,-0.0598
8414,-0.0199
8415,0.0000
8416,0.0000
8417,-0.0598
8418,0.0000
8419,0.0199
8420,0.1195
8421,0.0398
8422,-0.0398
8423,-0.0996
8424,-0.1594
8425,-0.1793
8426,-0.1594
8427,-0.1793
8428,-0.1594
8429,-0.1195
8430,0.0000
8431,0.1195
8432,0.1793
8433,0.2191
8434,0.1793
8435,0.1195
8436,0.0199
8437,-0.0598
8438,-0.0996
8439,-0.0996
8440,-0.0996
8441,-0.1395
8442,-0.1992
8443,-0.1195
8444,-0.0797
8445,0.0199
8446,0.0199
8447,-0.0199
8448,0.0199
8449,0.0598
8450,0.0996
8451,0.1594
8452,0.2391
8453,0.1992
8454,0.0797
8455,0.0199
8456,-0.0398
8457,-0.0398
8458,-0.0398
8459,-0.0598
8460,-0.0398
8461,-0.1195
8462,-0.0996
8463,-0.0199
8464,0.0598
8465,0.0797
8466,0.0996
8467,0.1195
8468,0.1195
8469,0.0598
8470,0.0398
8471,0.0199
8472,0.0398
8473,0.0000
8474,0.0199
8475,-0.0598
8476,-0.0199
8477,-0.0199
8478,0.0199
8479,0.0199
8480,0.0398
8481,0.0598
8482,0.0000
8483,-0.0797
8484,-0.0598
8485,-0.0797
8486,-0.0797
8487,-0.0996
8488,-0.0598
8489,-0.1395
8490,-0.0797
8491,-0.0598
8492,0.0398
8493,0.0000
8494,0.0199
8495,-0.0199
8496,0.0598
8497,-0.0398
8498,-0.0797
8499,-0.0996
8500,-0.1395
8501,-0.1793
8502,-0.1793
8503,-0.0996
8504,-0.0797
8505,-0.0598
8506,-0.1195
8507,-0.1793
8508,-0.1793
8509,-0.2391
8510,-0.2988
8511,-0.2191
8512,-0.1793
8513,-0.1395
8514,-0.0598
8515,-0.1195
8516,-0.1395
8517,-0.1594
8518,0.0000
8519,0.0199
8520,0.1992
8521,0.2191
8522,0.1594
8523,0.0996
8524,0.0797
8525,0.0996
8526,0.0000
8527,-0.0598
8528,-0.0797
8529,-0.1395
8530,-0.0398
8531,0.0000
8532,-0.0199
8533,0.0000
8534,0.0598
8535,0.0996
8536,0.1594
8537,0.1793
8538,0.2391
8539,0.1594
8540,0.0996
8541,0.0199
8542,0.0398
8543,0.1395
8544,0.1395
8545,0.1793
8546,0.0996
8547,0.0996
8548,0.0996
8549,0.0199
8550,0.0000
8551,-0.0398
8552,-0.0398
8553,-0.0199
8554,-0.0199
8555,-0.0199
8556,0.0996
8557,0.1395
8558,0.0797
8559,0.0199
8560,0.0000
8561,-0.0598
8562,-0.0598
8563,-0.0598
8564,-0.0996
8565,0.0000
8566,0.0199
8567,0.0598
8568,0.0797
8569,0.0598
8570,0.0398
8571,0.0598
8572,0.0398
8573,0.0398
8574,-0.0199
8575,-0.0398
8576,0.0199
8577,0.0996
8578,0.1195
8579,0.0797
8580,-0.0996
8581,-0.0996
8582,-0.1195
8583,-0.0398
8584,-0.0598
8585,-0.1594
8586,-0.2391
8587,-0.2789
8588,-0.2391
8589,-0.2191
8590,-0.1195
8591,-0.0996
8592,-0.0996
8593,-0.0199
8594,-0.0199
8595,0.0000
8596,0.1195
8597,0.1195
8598,0.1992
8599,0.1594
8600,0.0797
8601,0.0199
8602,0.0996
8603,0.2191
8604,0.1594
8605,0.0996
8606,0.0797
8607,0.0199
8608,0.0598
8609,0.0598
8610,0.0000
8611,-0.0797
8612,-0.0996
8613,0.0199
8614,0.0199
8615,0.0797
8616,0.0797
8617,0.0598
8618,0.0398
8619,-0.0199
8620,0.0797
8621,0.0996
8622,0.0996
8623,0.0199
8624,0.0000
8625,-0.0398
8626,0.0598
8627,-0.0199
8628,-0.0199
8629,-0.0797
8630,-0.0598
8631,-0.0797
8632,-0.0398
8633,-0.0996
8634,-0.0398
8635,-0.1195
8636,-0.0598
8637,-0.0996
8638,-0.0398
8639,-0.0598
8640,-0.0797
8641,0.0398
8642,-0.0199
8643,-0.0199
8644,-0.0797
8645,-0.0398
8646,0.0199
8647,-0.0199
8648,0.0398
8649,0.0598
8650,0.0598
8651,0.0199
8652,-0.0199
8653,-0.0398
8654,-0.0199
8655,-0.0199
8656,-0.0398
8657,-0.0398
8658,-0.0996
8659,-0.1594
8660,-0.1793
8661,-0.0398
8662,-0.0398
8663,-0.0398
8664,-0.0996
8665,-0.1395
8666,-0.1793
8667,-0.0996
8668,0.0598
8669,0.0598
8670,0.1195
8671,0.1395
8672,0.0598
8673,0.0598
8674,-0.0398
8675,-0.0199
8676,-0.0199
8677,-0.0199
8678,0.1195
8679,0.0797
8680,0.1195
8681,0.1594
8682,0.0398
8683,-0.0199
8684,0.0598
8685,0.0996
8686,0.0797
8687,-0.0199
8688,0.0199
8689,-0.0398
8690,0.0199
8691,-0.0598
8692,-0.0199
8693,-0.0199
8694,-0.0996
8695,-0.1195
8696,-0.0797
8697,0.0199
8698,0.0996
8699,0.1395
8700,0.1195
8701,0.0398
8702,0.0000
8703,-0.0199
8704,-0.0398
8705,-0.0398
8706,-0.0398
8707,-0.0398
8708,-0.0199
8709,-0.0598
8710,-0.0199
8711,-0.0199
8712,0.0996
8713,0.1395
8714,0.1395
8715,0.1793
8716,0.1195
8717,0.1594
8718,0.1793
8719,0.1195
8720,0.0797
8721,0.0996
8722,0.1195
8723,0.0797
8724,0.0598
8725,0.0797
8726,0.1395
8727,0.1594
8728,0.2391
8729,0.1395
8730,0.0996
8731,0.0996
8732,0.0598
8733,0.2191
8734,0.1992
8735,0.1195
8736,0.1992
8737,0.2590
8738,0.1793
8739,0.2191
8740,0.2590
8741,0.2988
8742,0.3188
8743,0.1992
8744,0.0797
8745,0.0797
8746,0.0598
8747,0.0797
8748,-0.0199
8749,-0.0797
8750,-0.0996
8751,-0.0398
8752,-0.0398
8753,0.0199
8754,0.0598
8755,0.0797
8756,0.0797
8757,0.1195
8758,0.1195
8759,0.0797
8760,0.0996
8761,0.0797
8762,0.1793
8763,0.0398
8764,0.0000
8765,-0.0199
8766,0.0199
8767,0.1195
8768,0.1793
8769,0.1793
8770,0.1195
8771,0.0996
8772,0.0996
8773,0.1195
8774,0.0598
8775,0.0199
8776,-0.0199
8777,-0.0199
8778,-0.0598
8779,0.0199
8780,0.1395
8781,0.1395
8782,0.1793
8783,0.2391
8784,0.2191
8785,0.1195
8786,-0.0199
8787,-0.1195
8788,-0.1594
8789,-0.1195
8790,-0.1594
8791,-0.1395
8792,-0.1992
8793,-0.0996
8794,-0.1195
8795,-0.0797
8796,-0.0797
8797,-0.2191
8798,-0.2191
8799,-0.2191
8800,-0.2391
8801,-0.1594
8802,-0.1594
8803,-0.0598
8804,-0.0996
8805,-0.0996
8806,-0.1395
8807,-0.1594
8808,-0.1793
8809,-0.1992
8810,-0.3387
8811,-0.3387
8812,-0.3984
8813,-0.3785
8814,-0.2391
8815,-0.1195
8816,-0.0199
8817,-0.0398
8818,-0.0398
8819,-0.0797
8820,-0.1195
8821,-0.0996
8822,-0.0598
8823,-0.0797
8824,-0.1195
8825,-0.1793
8826,-0.1992
8827,-0.1793
8828,-0.2191
8829,-0.2590
8830,-0.2391
8831,-0.3586
8832,-0.3785
8833,-0.3586
8834,-0.2391
8835,-0.2191
8836,-0.1793
8837,-0.0598
8838,0.0598
8839,0.0598
8840,-0.0199
8841,-0.0598
8842,0.0000
8843,0.0797
8844,0.0199
8845,0.0000
8846,-0.0398
8847,-0.0996
8848,-0.0797
8849,-0.0797
8850,-0.1195
8851,-0.0996
8852,-0.1195
8853,-0.0398
8854,-0.0797
8855,-0.0598
8856,-0.0996
8857,-0.0996
8858,-0.0797
8859,-0.1594
8860,-0.0996
8861,-0.0797
8862,-0.0797
8863,-0.0598
8864,-0.0996
8865,-0.0996
8866,0.0199
8867,-0.0199
8868,-0.0398
8869,-0.0797
8870,-0.1594
8871,-0.1594
8872,-0.1594
8873,-0.1793
8874,-0.0797
8875,-0.0598
8876,0.0398
8877,0.0797
8878,0.0598
8879,0.0598
8880,-0.0398
8881,-0.1395
8882,-0.0797
8883,-0.0996
8884,0.0000
8885,-0.0199
8886,-0.0398
8887,-0.0598
8888,0.0000
8889,0.0000
8890,-0.0598
8891,0.0000
8892,-0.0598
8893,-0.0598
8894,-0.0398
8895,-0.0199
8896,0.0000
8897,-0.0398
8898,-0.0598
8899,-0.0398
8900,0.0000
8901,-0.0398
8902,-0.0398
8903,0.0199
8904,-0.0199
8905,-0.0398
8906,-0.0199
8907,0.0000
8908,-0.0199
8909,0.0199
8910,0.0996
8911,0.1594
8912,0.1195
8913,0.1395
8914,0.1992
8915,0.1594
8916,0.0797
8917,0.0199
8918,0.0797
8919,0.0598
8920,0.0199
8921,0.0398
8922,-0.0199
8923,0.0398
8924,0.0996
8925,-0.0199
8926,0.0000
8927,0.0199
8928,-0.0199
8929,0.0000
8930,0.0199
8931,0.0000
8932,-0.0199
8933,-0.0598
8934,-0.0398
8935,-0.0598
8936,-0.0199
8937,-0.1594
8938,-0.1195
8939,-0.0996
8940,-0.0598
8941,-0.0797
8942,0.0199
8943,0.0797
8944,0.1594
8945,0.1992
8946,0.2391
8947,0.2191
8948,0.3188
8949,0.2988
8950,0.1992
8951,0.2391
8952,0.1992
8953,0.2391
8954,0.1992
8955,0.1594
8956,0.1395
8957,0.0797
8958,0.1395
8959,0.1195
8960,0.1195
8961,0.1395
8962,0.1395
8963,0.2191
8964,0.2191
8965,0.2391
8966,0.1395
8967,0.0797
8968,0.0398
8969,0.0398
8970,0.0199
8971,0.0398
8972,0.0598
8973,0.0996
8974,0.0996
8975,0.0996
8976,0.1793
8977,0.2391
8978,0.2590
8979,0.2191
8980,0.1594
8981,0.0797
8982,-0.0398
8983,-0.0598
8984,-0.0996
8985,-0.1594
8986,-0.0797
8987,-0.0797
8988,0.0398
8989,0.0199
8990,-0.0199
8991,0.0199
8992,-0.0797
8993,-0.0797
8994,-0.1395
8995,-0.0996
8996,-0.0797
8997,-0.0797
8998,-0.0199
8999,-0.0996
9000,-0.0996
9001,-0.1195
9002,-0.0797
9003,-0.0598
9004,-0.1195
9005,-0.2191
9006,-0.2391
9007,-0.2391
9008,-0.1793
9009,-0.0996
9010,0.0000
9011,0.0398
9012,0.0199
9013,-0.0598
9014,0.0000
9015,0.0000
9016,0.0199
9017,0.0199
9018,0.0000
9019,-0.0598
9020,-0.1594
9021,-0.2191
9022,-0.1594
9023,-0.1594
9024,-0.1395
9025,-0.0199
9026,0.0398
9027,0.1195
9028,0.1395
9029,0.1395
9030,0.1395
9031,0.1195
9032,0.0797
9033,0.0398
9034,-0.0797
9035,-0.1793
9036,-0.1594
9037,-0.1195
9038,-0.0996
9039,-0.0398
9040,0.0000
9041,0.0398
9042,-0.0598
9043,-0.0797
9044,0.0797
9045,0.0199
9046,0.0199
9047,0.0598
9048,0.0398
9049,0.0000
9050,-0.0398
9051,-0.0996
9052,-0.1195
9053,-0.1395
9054,-0.0996
9055,-0.0199
9056,0.0199
9057,0.0797
9058,0.0797
9059,0.0398
9060,0.0199
9061,0.0199
9062,-0.0199
9063,0.0398
9064,-0.0199
9065,-0.0797
9066,-0.0996
9067,-0.0598
9068,0.0199
9069,0.1395
9070,0.1594
9071,0.1793
9072,0.0996
9073,0.0199
9074,0.0797
9075,0.1195
9076,0.0598
9077,0.0398
9078,0.0996
9079,0.1395
9080,0.0797
9081,0.1195
9082,0.1395
9083,0.1594
9084,0.1395
9085,0.1594
9086,0.2191
9087,0.2191
9088,0.1395
9089,0.0797
9090,0.0598
9091,0.0000
9092,0.0000
9093,0.0199
9094,-0.0199
9095,-0.0398
9096,0.0199
9097,-0.0996
9098,-0.0996
9099,-0.0398
9100,0.0398
9101,0.0000
9102,0.0000
9103,0.0398
9104,0.0199
9105,0.0996
9106,0.0598
9107,0.0398
9108,-0.0598
9109,-0.0598
9110,-0.0797
9111,-0.0598
9112,-0.0199
9113,-0.0398
9114,-0.0797
9115,-0.0598
9116,-0.1793
9117,-0.2789
9118,-0.2988
9119,-0.2789
9120,-0.2590
9121,-0.2391
9122,-0.1992
9123,-0.1594
9124,-0.0996
9125,-0.0199
9126,0.0996
9127,0.1395
9128,0.2590
9129,0.1594
9130,0.1195
9131,0.0598
9132,0.0398
9133,-0.0398
9134,-0.0199
9135,-0.0598
9136,-0.0996
9137,-0.0398
9138,0.0000
9139,-0.0398
9140,0.0598
9141,0.0598
9142,0.0398
9143,-0.0199
9144,-0.0398
9145,-0.1395
9146,-0.0996
9147,-0.1395
9148,-0.0598
9149,-0.1195
9150,-0.0996
9151,-0.0797
9152,-0.0797
9153,-0.0398
9154,0.0199
9155,-0.0598
9156,-0.0398
9157,0.0398
9158,0.0199
9159,-0.0598
9160,-0.0996
9161,-0.1594
9162,-0.1793
9163,-0.1992
9164,-0.1594
9165,-0.0797
9166,-0.1992
9167,-0.1594
9168,-0.1195
9169,-0.1594
9170,-0.0996
9171,-0.1395
9172,-0.2391
9173,-0.2391
9174,-0.1793
9175,-0.1395
9176,-0.2191
9177,-0.1992
9178,-0.1793
9179,-0.0598
9180,-0.0598
9181,0.0199
9182,0.0598
9183,0.0398
9184,-0.0398
9185,-0.0996
9186,-0.1395
9187,-0.0996
9188,-0.0598
9189,-0.0598
9190,-0.0199
9191,0.0199
9192,0.1195
9193,0.1395
9194,0.1195
9195,0.1793
9196,0.0797
9197,0.0996
9198,0.0000
9199,-0.0598
9200,0.0000
9201,-0.0797
9202,-0.1594
9203,-0.1395
9204,-0.1793
9205,-0.0996
9206,-0.1195
9207,-0.0797
9208,-0.0797
9209,-0.0398
9210,0.0000
9211,0.0199
9212,-0.0598
9213,-0.0398
9214,-0.0199
9215,-0.0398
9216,-0.0398
9217,0.0199
9218,-0.0797
9219,-0.1793
9220,-0.1793
9221,-0.1992
9222,-0.1195
9223,-0.0398
9224,-0.0199
9225,0.1195
9226,0.1395
9227,0.0797
9228,0.0996
9229,0.0199
9230,-0.0199
9231,-0.0398
9232,-0.0398
9233,-0.0398
9234,-0.0598
9235,0.0000
9236,0.0797
9237,0.1395
9238,0.2391
9239,0.2789
9240,0.3785
9241,0.4184
9242,0.2988
9243,0.2391
9244,0.1793
9245,0.1195
9246,0.0797
9247,0.0996
9248,0.1793
9249,0.2391
9250,0.2391
9251,0.2391
9252,0.2590
9253,0.3387
9254,0.3586
9255,0.3188
9256,0.2191
9257,0.1395
9258,0.1594
9259,0.0797
9260,-0.0398
9261,0.0000
9262,-0.0199
9263,0.0797
9264,0.0996
9265,0.1793
9266,0.2988
9267,0.2789
9268,0.3387
9269,0.2590
9270,0.2191
9271,0.1395
9272,0.1594
9273,0.1793
9274,0.1594
9275,0.1992
9276,0.1195
9277,0.1395
9278,0.1395
9279,0.2191
9280,0.2988
9281,0.3785
9282,0.2988
9283,0.1992
9284,0.1793
9285,0.1395
9286,0.0797
9287,0.0598
9288,0.0199
9289,-0.0598
9290,0.0199
9291,0.0797
9292,0.0996
9293,0.1195
9294,0.0797
9295,0.1195
9296,0.0797
9297,-0.0199
9298,-0.0199
9299,-0.0398
9300,-0.0797
9301,-0.0598
9302,-0.0398
9303,0.0797
9304,0.0797
9305,0.0996
9306,0.0797
9307,0.0598
9308,0.0000
9309,-0.0797
9310,-0.0598
9311,-0.0996
9312,-0.0996
9313,0.0000
9314,0.0199
9315,0.0000
9316,0.0996
9317,0.0996
9318,0.1594
9319,0.0996
9320,0.0398
9321,0.0598
9322,0.0199
9323,0.0797
9324,0.0996
9325,0.2590
9326,0.2391
9327,0.1395
9328,0.0598
9329,0.0199
9330,-0.0398
9331,-0.0598
9332,-0.1992
9333,-0.2789
9334,-0.2590
9335,-0.1793
9336,-0.0996
9337,-0.1195
9338,-0.0398
9339,-0.0199
9340,-0.0199
9341,0.0000
9342,0.0000
9343,0.1195
9344,0.0797
9345,0.0000
9346,0.0398
9347,0.0000
9348,-0.0199
9349,-0.0199
9350,-0.0996
9351,-0.1793
9352,-0.2391
9353,-0.2191
9354,-0.1793
9355,-0.1793
9356,-0.1992
9357,-0.2191
9358,-0.1195
9359,-0.1395
9360,-0.0598
9361,-0.0797
9362,-0.0797
9363,-0.1195
9364,-0.1992
9365,-0.0797
9366,-0.0598
9367,-0.1195
9368,-0.1594
9369,-0.1793
9370,-0.1793
9371,-0.2391
9372,-0.2391
9373,-0.0996
9374,-0.0598
9375,-0.0797
9376,-0.2391
9377,-0.1992
9378,-0.2191
9379,-0.1992
9380,-0.1793
9381,-0.2590
9382,-0.3586
9383,-0.3785
9384,-0.3785
9385,-0.3188
9386,-0.2590
9387,-0.2391
9388,-0.2988
9389,-0.1594
9390,-0.1992
9391,-0.2789
9392,-0.2988
9393,-0.2789
9394,-0.3785
9395,-0.3387
9396,-0.3785
9397,-0.4184
9398,-0.3387
9399,-0.3188
9400,-0.2590
9401,-0.1992
9402,-0.1395
9403,-0.0996
9404,-0.0199
9405,0.0398
9406,0.0000
9407,-0.0199
9408,0.0199
9409,0.0598
9410,0.0199
9411,0.0797
9412,0.0199
9413,0.0797
9414,0.1992
9415,0.1992
9416,0.2789
9417,0.2988
9418,0.3586
9419,0.3785
9420,0.2988
9421,0.2590
9422,0.1992
9423,0.2391
9424,0.2191
9425,0.2789
9426,0.2988
9427,0.3188
9428,0.2988
9429,0.2590
9430,0.2391
9431,0.1992
9432,0.1594
9433,0.1594
9434,0.1195
9435,0.1195
9436,0.1594
9437,0.1594
9438,0.1395
9439,0.1594
9440,0.1992
9441,0.1594
9442,0.0996
9443,0.0996
9444,0.0996
9445,0.0996
9446,0.1395
9447,0.0598
9448,0.2391
9449,0.3785
9450,0.2590
9451,0.1793
9452,0.0598
9453,0.0996
9454,0.0797
9455,0.1195
9456,0.0598
9457,0.0398
9458,0.0199
9459,0.0199
9460,-0.0797
9461,-0.0199
9462,-0.0398
9463,-0.0398
9464,-0.0598
9465,-0.0598
9466,-0.0199
9467,0.0199
9468,0.0598
9469,0.0199
9470,0.0598
9471,0.0398
9472,0.0996
9473,0.0398
9474,0.0199
9475,0.0398
9476,0.0000
9477,-0.1195
9478,-0.2391
9479,-0.2590
9480,-0.2590
9481,-0.1793
9482,-0.1594
9483,-0.1195
9484,-0.0199
9485,0.0398
9486,0.0398
9487,0.0398
9488,0.0996
9489,0.0996
9490,0.0199
9491,0.0000
9492,0.0000
9493,0.0398
9494,0.0598
9495,0.0598
9496,0.0996
9497,0.1395
9498,0.1793
9499,0.1395
9500,0.1195
9501,0.1793
9502,0.1594
9503,0.0996
9504,0.0797
9505,0.0398
9506,0.0797
9507,0.0598
9508,0.1992
9509,0.2191
9510,0.0996
9511,0.0996
9512,0.1395
9513,0.1594
9514,0.1594
9515,0.1195
9516,0.1195
9517,0.1594
9518,0.1793
9519,0.0598
9520,0.0398
9521,0.0598
9522,0.0598
9523,0.0797
9524,0.1395
9525,0.2191
9526,0.1992
9527,0.1594
9528,0.0797
9529,0.0797
9530,0.0996
9531,0.0398
9532,0.0000
9533,-0.0398
9534,0.0199
9535,0.0398
9536,0.1195
9537,0.1195
9538,0.0797
9539,0.0797
9540,-0.0199
9541,-0.0398
9542,-0.0797
9543,-0.0797
9544,-0.0398
9545,-0.0598
9546,-0.0598
9547,-0.0797
9548,-0.0199
9549,0.0000
9550,0.0199
9551,0.0199
9552,-0.0398
9553,-0.0797
9554,-0.0797
9555,-0.0398
9556,-0.0398
9557,-0.1195
9558,-0.1195
9559,-0.1992
9560,-0.1195
9561,-0.0797
9562,-0.0996
9563,-0.0398
9564,-0.0199
9565,-0.0199
9566,-0.0598
9567,-0.1793
9568,-0.0996
9569,-0.1395
9570,-0.1992
9571,-0.1992
9572,-0.1793
9573,-0.0398
9574,-0.0797
9575,-0.0398
9576,0.0598
9577,0.0000
9578,-0.0199
9579,-0.0598
9580,-0.2191
9581,-0.2391
9582,-0.1793
9583,-0.2391
9584,-0.1793
9585,-0.1594
9586,-0.2391
9587,-0.1793
9588,-0.0797
9589,-0.0598
9590,-0.1395
9591,-0.0797
9592,-0.0996
9593,-0.0398
9594,-0.1594
9595,-0.1395
9596,-0.0996
9597,-0.0797
9598,-0.0199
9599,-0.0199
9600,-0.0199
9601,-0.0797
9602,-0.2391
9603,-0.2590
9604,-0.1992
9605,-0.2789
9606,-0.3586
9607,-0.3785
9608,-0.2988
9609,-0.2391
9610,-0.2191
9611,-0.1395
9612,-0.1195
9613,-0.0598
9614,-0.0996
9615,-0.0797
9616,0.0398
9617,0.0000
9618,-0.0199
9619,0.0000
9620,0.0000
9621,0.0199
9622,0.0000
9623,-0.0996
9624,-0.1195
9625,-0.1594
9626,-0.1395
9627,-0.2191
9628,-0.1594
9629,-0.1395
9630,0.0000
9631,-0.0398
9632,-0.0996
9633,0.0000
9634,0.0797
9635,0.1195
9636,0.1594
9637,0.1793
9638,0.2391
9639,0.1195
9640,-0.0199
9641,-0.0398
9642,-0.1195
9643,-0.0797
9644,-0.1195
9645,-0.1594
9646,-0.2391
9647,-0.1594
9648,-0.0398
9649,0.0398
9650,0.1594
9651,0.1594
9652,0.2191
9653,0.2590
9654,0.2391
9655,0.2191
9656,0.1395
9657,0.0797
9658,0.0797
9659,0.0199
9660,0.0797
9661,0.0598
9662,0.0000
9663,-0.0199
9664,-0.0996
9665,-0.0797
9666,-0.0598
9667,-0.0996
9668,-0.0598
9669,-0.0996
9670,-0.0398
9671,0.0398
9672,0.0398
9673,-0.0398
9674,-0.0398
9675,-0.0797
9676,-0.0797
9677,-0.1195
9678,-0.0199
9679,-0.0797
9680,0.0598
9681,0.0996
9682,0.0598
9683,0.0000
9684,-0.0398
9685,-0.0996
9686,-0.1395
9687,-0.1395
9688,-0.1195
9689,-0.1992
9690,-0.2590
9691,-0.1395
9692,-0.0996
9693,-0.0398
9694,0.0398
9695,0.0797
9696,0.0996
9697,-0.0398
9698,-0.1395
