Time (s),Kanaal 1
0,0.3984
1,0.3785
2,0.3387
3,0.2590
4,0.1793
5,0.0398
6,0.0199
7,0.0398
8,0.0797
9,0.0199
10,0.2191
11,0.2789
12,-0.0199
13,-0.1992
14,-0.2391
15,-0.1395
16,-0.0598
17,0.0996
18,0.2191
19,0.0996
20,0.0598
21,0.1594
22,0.3586
23,0.2391
24,0.0398
25,0.1195
26,0.1992
27,0.2988
28,0.2590
29,0.2191
30,0.1395
31,0.1594
32,0.1594
33,0.0000
34,-0.2590
35,-0.0398
36,0.0398
37,0.1395
38,0.0000
39,0.1195
40,0.1195
41,-0.0398
42,-0.0996
43,-0.1395
44,-0.0598
45,0.0199
46,-0.0199
47,0.0000
48,0.0398
49,-0.0199
50,-0.0598
51,-0.0398
52,-0.0398
53,-0.0996
54,-0.0199
55,-0.0398
56,-0.0199
57,-0.0996
58,-0.0996
59,-0.0598
60,-0.1195
61,-0.1594
62,-0.1992
63,-0.1793
64,-0.1992
65,-0.0199
66,-0.0996
67,-0.0996
68,-0.1594
69,-0.2391
70,-0.1992
71,-0.1395
72,-0.0199
73,0.2391
74,0.1594
75,-0.1395
76,-0.3188
77,-0.1992
78,-0.1195
79,-0.1594
80,-0.5379
81,-0.7172
82,-0.1594
83,0.2590
84,0.0797
85,-0.2391
86,-0.2590
87,-0.1594
88,-0.0996
89,0.1594
90,0.8168
91,0.8965
92,0.2789
93,-0.2391
94,-0.5180
95,-0.4383
96,-0.2191
97,0.0199
98,0.0996
99,0.0199
100,-0.0199
101,-0.0398
102,0.0199
103,0.0199
104,-0.0199
105,-0.1594
106,-0.0996
107,0.0000
108,0.0000
109,0.0797
110,0.3188
111,0.2391
112,-0.0199
113,-0.3984
114,-0.5379
115,-0.4980
116,-0.2988
117,-0.0797
118,0.1793
119,0.3387
120,0.3984
121,0.2590
122,0.2988
123,0.2590
124,0.2789
125,0.2391
126,0.0000
127,0.0797
128,0.2191
129,0.3586
130,0.1992
131,0.0598
132,0.0000
133,-0.0598
134,-0.0996
135,0.1195
136,0.1395
137,-0.0398
138,-0.1594
139,-0.1793
140,-0.0996
141,-0.0398
142,0.0000
143,0.0000
144,0.0797
145,0.0598
146,0.0398
147,0.1594
148,0.1195
149,0.2789
150,0.3188
151,0.1992
152,0.2191
153,0.2789
154,0.1395
155,0.0000
156,-0.2590
157,-0.3785
158,-0.3387
159,-0.2391
160,-0.0598
161,0.0598
162,0.1594
163,0.3387
164,0.4184
165,0.2789
166,0.2191
167,0.0000
168,-0.0996
169,0.0598
170,0.3188
171,0.0797
172,-0.0797
173,-0.1395
174,-0.0398
175,-0.0996
176,-0.0598
177,0.0996
178,0.4781
179,0.7172
180,0.8766
181,0.0797
182,-0.5578
183,-0.9164
184,-0.8965
185,-0.6375
186,-0.1395
187,0.3785
188,0.3785
189,0.1992
190,0.1395
191,0.0199
192,0.0000
193,0.1395
194,0.0398
195,-0.0398
196,0.0598
197,0.0598
198,0.0398
199,-0.0199
200,0.0000
201,0.0797
202,0.0797
203,0.0996
204,0.1195
205,0.0398
206,0.1195
207,0.2391
208,0.0996
209,-0.2590
210,-0.7172
211,-0.6375
212,-0.0996
213,0.2988
214,0.2789
215,0.2191
216,0.0996
217,0.0398
218,0.0000
219,0.0797
220,0.2191
221,0.0797
222,0.0797
223,0.0199
224,0.0199
225,0.1195
226,0.1793
227,-0.0199
228,-0.1594
229,-0.0398
230,-0.0398
231,-0.0598
232,0.0000
233,-0.0398
234,-0.1195
235,-0.0996
236,-0.0797
237,-0.1195
238,-0.2391
239,-0.1793
240,-0.0797
241,-0.0398
242,0.0996
243,0.1395
244,0.1992
245,0.1793
246,0.0598
247,-0.0797
248,-0.3785
249,-0.6773
250,-0.4781
251,-0.1992
252,0.0598
253,-0.0398
254,0.1395
255,-0.0199
256,-0.2191
257,-0.3586
258,-0.4184
259,-0.3785
260,-0.2789
261,-0.2391
262,-0.1793
263,-0.0398
264,-0.0996
265,-0.0398
266,-0.0797
267,-0.3387
268,-0.2988
269,-0.2191
270,-0.1992
271,-0.0996
272,-0.0598
273,-0.0996
274,-0.0199
275,0.2191
276,-0.0398
277,-0.5977
278,-0.7172
279,-0.3984
280,0.1195
281,0.2789
282,0.3984
283,0.3586
284,0.3785
285,0.1793
286,-0.0598
287,-0.1793
288,-0.1395
289,-0.1195
290,-0.0996
291,-0.1195
292,-0.1594
293,-0.3984
294,-0.4980
295,-0.2191
296,0.0398
297,0.2590
298,0.0996
299,0.0199
300,0.0199
301,-0.1594
302,-0.1793
303,-0.0996
304,-0.1594
305,-0.1594
306,-0.1594
307,-0.1195
308,-0.1395
309,-0.2191
310,-0.1992
311,-0.1594
312,-0.1594
313,-0.1195
314,-0.0996
315,0.0598
316,0.1195
317,0.0797
318,0.0000
319,-0.0199
320,-0.0398
321,-0.0996
322,-0.0996
323,-0.0797
324,-0.0598
325,0.0199
326,0.0000
327,0.0398
328,0.0000
329,-0.0598
330,-0.0797
331,-0.0996
332,-0.2391
333,-0.1195
334,-0.1395
335,-0.0996
336,0.0000
337,0.0199
338,-0.0199
339,-0.0598
340,0.0996
341,0.1195
342,-0.1992
343,-0.1395
344,0.0199
345,0.3387
346,0.3586
347,0.3984
348,0.2191
349,-0.0398
350,-0.1992
351,-0.1195
352,-0.0598
353,-0.0797
354,-0.0598
355,-0.0797
356,-0.0996
357,-0.0996
358,-0.1395
359,-0.0598
360,-0.1793
361,0.0199
362,0.0996
363,0.0199
364,0.0398
365,0.1395
366,0.0797
367,0.2590
368,0.2988
369,0.2789
370,0.2789
371,0.1594
372,0.0398
373,0.0199
374,0.0598
375,0.0996
376,0.0797
377,0.0797
378,0.0199
379,-0.1395
380,-0.0199
381,0.1195
382,0.2391
383,0.1395
384,0.0000
385,0.0000
386,-0.0398
387,0.0598
388,0.0398
389,-0.0398
390,-0.1992
391,-0.3984
392,-0.4184
393,-0.2191
394,0.0996
395,0.3785
396,0.4184
397,0.4582
398,0.3785
399,0.3188
400,0.2191
401,0.0797
402,0.0199
403,-0.0199
404,-0.0598
405,-0.1195
406,-0.0996
407,-0.1395
408,-0.1395
409,-0.0996
410,-0.0398
411,-0.0598
412,-0.0398
413,-0.0598
414,-0.0797
415,-0.1395
416,-0.0996
417,-0.1395
418,-0.1195
419,-0.0598
420,-0.0797
421,-0.0996
422,-0.1992
423,-0.0996
424,-0.1195
425,0.1195
426,0.0598
427,-0.0598
428,-0.0398
429,0.0398
430,0.1395
431,0.0797
432,0.0996
433,0.1395
434,0.1793
435,0.0996
436,0.0199
437,0.0000
438,0.0199
439,0.0996
440,0.0000
441,-0.1195
442,-0.1395
443,-0.0996
444,-0.0398
445,-0.0199
446,-0.1195
447,-0.1395
448,-0.1992
449,0.0000
450,0.1395
451,0.0996
452,0.0199
453,-0.0598
454,-0.0996
455,0.0000
456,0.0398
457,0.1195
458,0.0797
459,0.0797
460,0.1195
461,0.1594
462,0.1992
463,0.1992
464,0.2391
465,0.1793
466,0.1195
467,0.0996
468,0.0398
469,0.0398
470,0.0598
471,0.0199
472,-0.0598
473,-0.0598
474,-0.1395
475,0.0797
476,0.2191
477,0.3188
478,0.0797
479,-0.1195
480,-0.1992
481,-0.1992
482,-0.0199
483,0.1195
484,0.2191
485,0.0797
486,0.0000
487,-0.0598
488,-0.2789
489,-0.2191
490,-0.0598
491,0.0000
492,0.1195
493,0.1793
494,0.3586
495,0.1992
496,0.0797
497,-0.0398
498,-0.1793
499,-0.1594
500,-0.2391
501,-0.1594
502,-0.0996
503,-0.0996
504,0.0000
505,0.0598
506,0.2191
507,0.2391
508,0.0996
509,0.3586
510,0.4184
511,0.2391
512,0.0199
513,-0.4383
514,-0.5578
515,-0.4781
516,-0.3188
517,-0.0996
518,0.1395
519,0.1992
520,0.2191
521,0.2789
522,0.1992
523,0.1395
524,0.0797
525,0.0199
526,0.0199
527,0.0000
528,-0.0398
529,-0.0398
530,-0.1195
531,-0.1793
532,-0.1793
533,-0.1195
534,-0.0598
535,-0.1195
536,-0.0797
537,0.0000
538,-0.0199
539,-0.0598
540,-0.0598
541,0.0199
542,-0.0199
543,0.0199
544,0.0398
545,0.0996
546,0.0797
547,0.0598
548,0.1992
549,0.1992
550,0.0797
551,0.0996
552,0.1195
553,0.0797
554,0.0398
555,0.0199
556,-0.0398
557,0.0199
558,0.0398
559,0.0398
560,0.1395
561,0.3188
562,0.4184
563,0.2789
564,0.3387
565,0.3188
566,0.0398
567,-0.0797
568,-0.1594
569,-0.2988
570,-0.2191
571,-0.2590
572,-0.2191
573,-0.0996
574,0.1195
575,0.2988
576,0.2988
577,0.1793
578,0.0598
579,-0.0199
580,-0.0199
581,-0.0398
582,0.0199
583,0.0797
584,0.2191
585,0.1793
586,0.1992
587,0.1395
588,0.2191
589,0.1992
590,0.0598
591,0.0797
592,0.0797
593,0.0598
594,0.0398
595,0.0199
596,0.0398
597,0.1992
598,0.4184
599,0.4383
600,0.1395
601,-0.3188
602,-0.5578
603,-0.6176
604,-0.4582
605,-0.2191
606,-0.1195
607,0.0000
608,-0.0398
609,-0.0598
610,0.1594
611,0.2789
612,0.0797
613,-0.1594
614,-0.2988
615,-0.3785
616,-0.3188
617,-0.0199
618,0.2590
619,0.3785
620,0.3785
621,0.3387
622,0.1793
623,0.1992
624,0.2191
625,0.2191
626,0.2590
627,0.2391
628,0.1395
629,0.0199
630,0.0996
631,-0.0996
632,-0.4980
633,-0.5180
634,-0.3984
635,-0.1594
636,0.1195
637,0.2988
638,0.5379
639,0.4184
640,-0.0398
641,-0.3984
642,-0.5180
643,-0.5578
644,-0.4184
645,-0.2590
646,-0.0199
647,0.1594
648,0.1395
649,0.0000
650,-0.0199
651,0.0598
652,0.2191
653,0.1395
654,0.0598
655,-0.0996
656,-0.1395
657,-0.1195
658,-0.0598
659,-0.0398
660,-0.0996
661,-0.1395
662,-0.2590
663,0.0000
664,0.2590
665,-0.0797
666,-0.3387
667,-0.4582
668,-0.3387
669,-0.0996
670,0.1395
671,0.0996
672,0.0598
673,-0.0199
674,-0.0996
675,-0.0797
676,-0.0797
677,-0.0398
678,-0.0996
679,-0.0797
680,-0.1395
681,-0.0797
682,0.0000
683,-0.2191
684,-0.3188
685,-0.4781
686,-0.4184
687,-0.3984
688,-0.2789
689,-0.1195
690,0.0199
691,-0.0996
692,-0.1195
693,-0.0996
694,0.0000
695,0.0598
696,0.1195
697,-0.0996
698,-0.1992
699,0.0000
700,0.6176
701,0.5578
702,-0.0598
703,-0.5180
704,-0.5777
705,-0.4582
706,-0.2590
707,0.0000
708,0.0398
709,-0.0598
710,-0.0398
711,-0.0797
712,0.0199
713,0.0199
714,0.0598
715,0.0398
716,-0.0199
717,-0.0398
718,-0.0199
719,0.0199
720,-0.0199
721,-0.0199
722,-0.0398
723,-0.0797
724,-0.1195
725,-0.0996
726,-0.1195
727,-0.1195
728,0.0199
729,-0.1195
730,-0.0199
731,-0.0199
732,0.0598
733,0.0598
734,-0.0598
735,-0.0598
736,-0.1195
737,-0.0598
738,0.0199
739,-0.0598
740,-0.1195
741,-0.1195
742,-0.3586
743,-0.2789
744,-0.1594
745,-0.0996
746,0.1594
747,0.1594
748,-0.0598
749,-0.0797
750,-0.0797
751,0.0598
752,0.2988
753,0.3188
754,0.2789
755,0.1992
756,0.0797
757,0.0398
758,0.0199
759,-0.1395
760,-0.1395
761,-0.0797
762,0.0598
763,-0.1594
764,-0.1195
765,0.2590
766,-0.0598
767,-0.2789
768,-0.2789
769,-0.1195
770,0.1594
771,0.3586
772,0.3586
773,0.4582
774,0.3387
775,0.2789
776,0.2391
777,0.1992
778,0.1395
779,0.1395
780,0.0199
781,-0.0398
782,-0.0598
783,-0.0398
784,0.0199
785,0.0996
786,0.0398
787,0.0996
788,0.0398
789,0.0199
790,-0.0598
791,-0.0398
792,0.0398
793,0.1195
794,0.0996
795,0.0797
796,0.0398
797,0.0398
798,-0.1395
799,-0.1594
800,-0.0598
801,0.1793
802,0.2988
803,0.2789
804,0.0996
805,0.0797
806,-0.0598
807,-0.1395
808,-0.2191
809,-0.2391
810,-0.1395
811,-0.0199
812,-0.0199
813,0.0000
814,-0.0996
815,-0.1395
816,-0.1395
817,0.0000
818,-0.0398
819,-0.0996
820,-0.2590
821,-0.4383
822,-0.1594
823,0.1594
824,0.2590
825,0.0199
826,-0.2590
827,-0.3586
828,-0.2191
829,-0.0996
830,0.0000
831,0.0000
832,0.0000
833,-0.0398
834,-0.0996
835,-0.2988
836,-0.3586
837,-0.1992
838,0.0000
839,0.2191
840,0.2590
841,0.2191
842,0.1793
843,0.0797
844,0.0398
845,0.0199
846,-0.0797
847,-0.1594
848,-0.2391
849,-0.1992
850,-0.1594
851,-0.0996
852,-0.1793
853,-0.1395
854,-0.1395
855,-0.0996
856,-0.1594
857,-0.0398
858,0.0199
859,-0.0398
860,-0.0797
861,-0.1195
862,-0.1395
863,-0.0996
864,-0.0598
865,-0.0398
866,0.0199
867,0.0398
868,0.0398
869,-0.0398
870,-0.1195
871,0.0000
872,0.0199
873,0.0797
874,0.0797
875,0.0797
876,-0.0398
877,-0.0398
878,-0.1395
879,-0.3785
880,-0.3387
881,-0.1594
882,0.1195
883,0.2988
884,0.2789
885,0.1793
886,0.0398
887,-0.1195
888,-0.1594
889,-0.0398
890,0.0199
891,0.0398
892,0.0000
893,0.0000
894,0.0996
895,0.0598
896,-0.0199
897,0.0598
898,0.0000
899,-0.0398
900,-0.0996
901,-0.0996
902,-0.1395
903,-0.1594
904,-0.1594
905,-0.0598
906,0.0199
907,0.0598
908,0.0000
909,-0.0598
910,-0.1195
911,-0.0797
912,-0.2391
913,-0.2988
914,-0.1395
915,0.0199
916,0.2789
917,0.3785
918,0.2191
919,0.0797
920,-0.0398
921,-0.0797
922,-0.0398
923,-0.0598
924,-0.0398
925,0.0199
926,0.0797
927,0.0996
928,0.0996
929,-0.0797
930,-0.0797
931,-0.0598
932,0.1992
933,0.4184
934,0.4383
935,0.3785
936,0.2789
937,0.2590
938,0.1594
939,0.0398
940,0.0199
941,0.0398
942,0.1195
943,0.2988
944,0.2191
945,0.0000
946,-0.0797
947,-0.1594
948,-0.0797
949,0.0398
950,0.1395
951,0.1594
952,0.2391
953,0.2191
954,0.1195
955,0.0199
956,-0.1395
957,-0.2391
958,-0.0598
959,-0.0199
960,0.0996
961,0.2988
962,0.2391
963,0.0199
964,-0.2789
965,-0.2789
966,-0.2391
967,-0.1395
968,0.0000
969,0.0797
970,0.2391
971,0.1992
972,0.1793
973,0.3188
974,0.2789
975,0.0000
976,-0.0797
977,0.0000
978,0.0996
979,0.1594
980,0.0398
981,-0.0598
982,-0.1195
983,-0.1395
984,0.1594
985,0.1793
986,0.0797
987,-0.0398
988,-0.0797
989,-0.0598
990,-0.0996
991,-0.0598
992,-0.1594
993,-0.1594
994,-0.0996
995,-0.0996
996,-0.0598
997,-0.0199
998,-0.0797
999,-0.2191
1000,-0.2391
1001,-0.3387
1002,-0.2988
1003,-0.2191
1004,-0.2191
1005,-0.1594
1006,-0.0996
1007,-0.0598
1008,-0.0398
1009,-0.0398
1010,0.0000
1011,0.0598
1012,0.0000
1013,-0.0797
1014,-0.1992
1015,-0.3387
1016,-0.3586
1017,-0.1992
1018,-0.1793
1019,-0.1594
1020,-0.1395
1021,-0.1195
1022,0.0000
1023,0.0199
1024,0.0000
1025,-0.0199
1026,0.0000
1027,-0.0598
1028,-0.1195
1029,-0.0598
1030,-0.0398
1031,-0.1395
1032,-0.3785
1033,-0.3387
1034,-0.1594
1035,0.0000
1036,0.0598
1037,0.2590
1038,0.2789
1039,0.4980
1040,0.3785
1041,-0.0199
1042,-0.3188
1043,-0.4184
1044,-0.3188
1045,-0.1793
1046,-0.0598
1047,0.0199
1048,0.0598
1049,-0.0996
1050,-0.1395
1051,-0.0797
1052,-0.0398
1053,0.0199
1054,0.0398
1055,0.0398
1056,0.0598
1057,0.0797
1058,0.0996
1059,0.1195
1060,0.1195
1061,0.1594
1062,0.0996
1063,0.0797
1064,0.0598
1065,-0.0398
1066,-0.0797
1067,-0.1195
1068,-0.0996
1069,-0.0398
1070,0.0199
1071,-0.0398
1072,-0.0797
1073,-0.0398
1074,-0.0598
1075,-0.0598
1076,-0.0797
1077,-0.0199
1078,0.0199
1079,-0.0598
1080,0.0000
1081,0.0199
1082,0.0996
1083,0.0598
1084,0.0000
1085,-0.0598
1086,-0.1195
1087,-0.1195
1088,-0.1195
1089,-0.0797
1090,-0.3387
1091,-0.2789
1092,0.0598
1093,0.1992
1094,0.2391
1095,0.1594
1096,0.1594
1097,0.0996
1098,-0.0598
1099,-0.0398
1100,-0.0598
1101,-0.2391
1102,-0.3785
1103,-0.3984
1104,-0.2789
1105,-0.0996
1106,0.0000
1107,-0.0996
1108,-0.1992
1109,-0.1195
1110,0.0598
1111,0.1992
1112,0.0398
1113,0.2191
1114,0.3387
1115,0.1395
1116,-0.0199
1117,-0.2191
1118,-0.3586
1119,-0.3387
1120,-0.2191
1121,-0.0598
1122,0.0398
1123,0.0199
1124,0.0797
1125,0.2988
1126,0.4383
1127,0.5379
1128,0.2191
1129,-0.1195
1130,-0.1195
1131,-0.0797
1132,-0.1195
1133,-0.1793
1134,-0.1395
1135,-0.2191
1136,-0.1195
1137,0.0598
1138,0.1195
1139,0.2789
1140,0.1195
1141,0.1195
1142,0.1395
1143,0.0797
1144,0.1195
1145,0.1395
1146,0.0598
1147,0.0398
1148,-0.0996
1149,-0.1195
1150,-0.1594
1151,-0.2391
1152,-0.1793
1153,-0.0797
1154,0.0000
1155,0.0398
1156,-0.0398
1157,-0.1195
1158,-0.0996
1159,-0.0199
1160,0.1195
1161,0.0000
1162,-0.0598
1163,0.1395
1164,0.2988
1165,0.1793
1166,0.0398
1167,-0.1594
1168,-0.2789
1169,-0.0797
1170,0.2391
1171,0.3586
1172,0.2191
1173,0.1793
1174,0.0996
1175,0.0199
1176,0.0996
1177,0.1992
1178,0.1594
1179,0.1195
1180,0.0797
1181,0.1195
1182,0.1594
1183,0.1594
1184,0.1395
1185,0.0996
1186,0.0199
1187,-0.0797
1188,-0.1793
1189,-0.1992
1190,-0.1195
1191,-0.0598
1192,-0.0598
1193,0.0199
1194,0.0398
1195,0.2191
1196,0.4781
1197,0.4781
1198,0.3387
1199,0.0797
1200,0.0000
1201,-0.0398
1202,-0.1992
1203,-0.1793
1204,-0.1793
1205,-0.0598
1206,0.0598
1207,0.0598
1208,0.2391
1209,0.2988
1210,0.2391
1211,0.1793
1212,0.1594
1213,-0.0199
1214,-0.0598
1215,-0.0199
1216,0.0797
1217,0.0797
1218,0.1195
1219,0.0797
1220,0.0398
1221,0.0000
1222,0.0797
1223,0.0598
1224,0.0598
1225,0.0598
1226,-0.0598
1227,-0.2988
1228,-0.5578
1229,-0.6375
1230,-0.4184
1231,-0.0797
1232,0.1195
1233,0.0398
1234,0.0199
1235,0.0598
1236,0.0797
1237,0.0797
1238,-0.0996
1239,-0.0797
1240,-0.0199
1241,0.0598
1242,0.0797
1243,0.1793
1244,0.1992
1245,0.1992
1246,0.1195
1247,0.0996
1248,0.0598
1249,-0.0797
1250,-0.1195
1251,-0.1395
1252,-0.1594
1253,-0.1594
1254,-0.1594
1255,-0.0199
1256,-0.0398
1257,-0.1195
1258,-0.0598
1259,0.0199
1260,0.0000
1261,0.0797
1262,0.0398
1263,0.0598
1264,0.0797
1265,0.0996
1266,0.0996
1267,0.0199
1268,0.0000
1269,0.0996
1270,0.0598
1271,-0.0797
1272,-0.1195
1273,-0.1395
1274,-0.0398
1275,0.0996
1276,0.1195
1277,-0.0398
1278,-0.1195
1279,0.0398
1280,0.1395
1281,0.1793
1282,0.0199
1283,-0.0598
1284,-0.0199
1285,-0.1195
1286,-0.0797
1287,0.0199
1288,-0.0199
1289,0.0199
1290,-0.0199
1291,0.0598
1292,0.0797
1293,0.1395
1294,0.1395
1295,0.0000
1296,0.0000
1297,-0.0598
1298,-0.2191
1299,-0.2391
1300,-0.2590
1301,-0.1992
1302,-0.3586
1303,-0.4980
1304,-0.3586
1305,-0.1195
1306,0.1594
1307,0.2789
1308,0.2789
1309,0.2590
1310,0.2590
1311,0.3785
1312,0.2988
1313,0.2988
1314,0.1992
1315,0.0598
1316,0.0398
1317,0.0000
1318,-0.1395
1319,-0.1992
1320,-0.2789
1321,-0.1594
1322,-0.0797
1323,0.0000
1324,0.0000
1325,0.0996
1326,0.0996
1327,0.1793
1328,0.0000
1329,-0.1594
1330,0.0996
1331,0.0598
1332,-0.1992
1333,-0.1395
1334,-0.2789
1335,-0.1992
1336,0.0398
1337,0.1395
1338,0.0797
1339,0.0797
1340,0.1195
1341,0.1395
1342,0.1992
1343,0.0797
1344,0.1195
1345,0.0199
1346,0.0199
1347,-0.0199
1348,-0.0996
1349,-0.1992
1350,-0.1594
1351,-0.2988
1352,-0.3586
1353,-0.3586
1354,-0.3387
1355,-0.1195
1356,-0.0797
1357,0.1395
1358,0.1793
1359,0.1195
1360,0.0598
1361,-0.0797
1362,-0.1992
1363,-0.3387
1364,-0.5977
1365,-0.3984
1366,-0.1594
1367,0.1195
1368,0.0996
1369,-0.1793
1370,-0.2391
1371,-0.2988
1372,-0.2191
1373,-0.0996
1374,0.1195
1375,0.1793
1376,0.1395
1377,0.0797
1378,0.0598
1379,0.0398
1380,0.0996
1381,0.0398
1382,0.0199
1383,-0.0598
1384,-0.0996
1385,-0.1195
1386,-0.0598
1387,-0.1195
1388,-0.2789
1389,-0.2988
1390,-0.3188
1391,-0.2391
1392,-0.0598
1393,0.0398
1394,0.0199
1395,0.0797
1396,0.0797
1397,0.0199
1398,-0.0398
1399,0.0000
1400,0.0000
1401,0.0199
1402,0.2391
1403,0.3984
1404,0.1395
1405,-0.0199
1406,-0.1793
1407,-0.0996
1408,0.0199
1409,0.3387
1410,0.3785
1411,0.1793
1412,0.1195
1413,0.0598
1414,0.0199
1415,0.0000
1416,-0.1395
1417,-0.2590
1418,-0.2789
1419,-0.2988
1420,-0.2590
1421,0.0398
1422,-0.0199
1423,-0.0199
1424,-0.1793
1425,-0.2590
1426,-0.1793
1427,-0.1992
1428,-0.1594
1429,-0.2191
1430,-0.1793
1431,-0.1793
1432,-0.1195
1433,-0.1594
1434,-0.1395
1435,-0.1395
1436,-0.0598
1437,-0.0398
1438,-0.0598
1439,0.0000
1440,0.0199
1441,-0.0199
1442,-0.1195
1443,-0.2590
1444,-0.2590
1445,-0.1195
1446,-0.1395
1447,-0.0797
1448,-0.0398
1449,0.0398
1450,-0.0398
1451,0.0000
1452,-0.0996
1453,-0.1195
1454,-0.0598
1455,0.0598
1456,0.0797
1457,0.1195
1458,-0.1594
1459,-0.4980
1460,-0.2988
1461,-0.0797
1462,0.0398
1463,0.0996
1464,0.0398
1465,0.0398
1466,0.0797
1467,0.2391
1468,0.3984
1469,0.2191
1470,0.2391
1471,0.2191
1472,0.0797
1473,0.0199
1474,-0.0199
1475,-0.1793
1476,-0.2391
1477,-0.1594
1478,-0.0797
1479,-0.0598
1480,0.0398
1481,0.1594
1482,0.3188
1483,0.5777
1484,0.4582
1485,0.1594
1486,-0.1594
1487,-0.2391
1488,-0.3188
1489,-0.1594
1490,-0.1594
1491,0.0199
1492,0.0199
1493,-0.0199
1494,0.0598
1495,0.1793
1496,0.2191
1497,0.1992
1498,0.2191
1499,0.2590
1500,0.2191
1501,0.1992
1502,0.2590
1503,0.2191
1504,0.0598
1505,0.0797
1506,0.0797
1507,0.0000
1508,0.0199
1509,-0.0996
1510,-0.1195
1511,-0.1793
1512,-0.1793
1513,-0.2789
1514,-0.3387
1515,-0.3586
1516,-0.4184
1517,-0.1793
1518,0.0996
1519,0.3984
1520,0.4383
1521,0.2391
1522,0.0996
1523,0.0598
1524,-0.0797
1525,-0.0797
1526,-0.0797
1527,-0.0398
1528,0.0199
1529,0.2191
1530,0.0199
1531,-0.1195
1532,-0.2789
1533,-0.4184
1534,-0.3586
1535,-0.2391
1536,-0.1793
1537,-0.0797
1538,-0.0398
1539,0.0398
1540,0.0000
1541,0.0996
1542,0.1195
1543,0.2391
1544,-0.0398
1545,-0.2590
1546,-0.3387
1547,-0.4184
1548,-0.2789
1549,-0.1793
1550,-0.1195
1551,-0.0598
1552,-0.0199
1553,-0.0398
1554,0.0797
1555,0.2391
1556,0.3188
1557,0.2191
1558,0.1992
1559,0.1594
1560,0.0598
1561,0.0000
1562,0.0199
1563,-0.0797
1564,-0.0598
1565,-0.0199
1566,-0.1395
1567,0.0000
1568,0.0199
1569,0.1594
1570,0.1395
1571,0.0199
1572,-0.0199
1573,-0.0797
1574,-0.2789
1575,-0.0797
1576,-0.0199
1577,0.0199
1578,-0.1195
1579,-0.2391
1580,-0.3188
1581,-0.3188
1582,-0.1793
1583,-0.0199
1584,0.1793
1585,0.1594
1586,0.1395
1587,-0.0199
1588,-0.0398
1589,-0.0398
1590,-0.0199
1591,-0.0199
1592,-0.0398
1593,-0.0398
1594,0.0000
1595,0.0598
1596,0.0598
1597,-0.0199
1598,-0.0598
1599,-0.1395
1600,-0.1992
1601,-0.1195
1602,-0.1395
1603,-0.0797
1604,0.0398
1605,0.2191
1606,0.2789
1607,0.0797
1608,-0.2590
1609,-0.3785
1610,-0.5578
1611,-0.5180
1612,-0.4184
1613,-0.2191
1614,0.0000
1615,0.2191
1616,0.4184
1617,0.4781
1618,0.3188
1619,0.3586
1620,0.1195
1621,-0.0996
1622,-0.1395
1623,-0.1594
1624,-0.1992
1625,-0.2391
1626,-0.1793
1627,-0.1992
1628,-0.2590
1629,-0.1395
1630,-0.0598
1631,-0.0598
1632,0.0398
1633,0.0398
1634,0.0996
1635,0.0398
1636,0.0199
1637,0.0598
1638,0.0797
1639,0.1395
1640,0.2191
1641,0.0996
1642,-0.0199
1643,-0.0398
1644,0.1793
1645,0.1992
1646,-0.0398
1647,-0.1793
1648,-0.2590
1649,-0.2391
1650,-0.1992
1651,-0.2590
1652,-0.0996
1653,0.1594
1654,0.1793
1655,0.1992
1656,0.2590
1657,0.1594
1658,0.0996
1659,0.0199
1660,-0.2191
1661,-0.1992
1662,-0.1395
1663,-0.0398
1664,0.0797
1665,0.0199
1666,0.0996
1667,0.1395
1668,0.1195
1669,0.1992
1670,0.2391
1671,0.1395
1672,0.0398
1673,-0.0199
1674,-0.1793
1675,-0.1594
1676,-0.1793
1677,-0.1992
1678,-0.1594
1679,-0.1395
1680,-0.1195
1681,0.0598
1682,0.1195
1683,0.0598
1684,0.1992
1685,0.1992
1686,0.0199
1687,0.0000
1688,-0.0398
1689,-0.0996
1690,-0.0598
1691,-0.0398
1692,-0.1195
1693,-0.0797
1694,-0.1992
1695,-0.2391
1696,-0.2191
1697,-0.2191
1698,-0.1395
1699,0.0398
1700,0.1793
1701,0.0598
1702,-0.1395
1703,-0.0996
1704,0.0199
1705,0.1992
1706,0.1992
1707,0.0398
1708,-0.0797
1709,-0.1395
1710,-0.2191
1711,-0.1395
1712,-0.1992
1713,-0.2191
1714,-0.2590
1715,-0.2590
1716,-0.2590
1717,-0.0996
1718,-0.0199
1719,0.0996
1720,0.1992
1721,0.1992
1722,0.0797
1723,0.2590
1724,0.2391
1725,0.1992
1726,0.0398
1727,-0.0598
1728,-0.1195
1729,-0.1594
1730,-0.0797
1731,-0.0598
1732,-0.2988
1733,-0.3785
1734,-0.3188
1735,-0.2191
1736,-0.0199
1737,0.0996
1738,0.1793
1739,0.2789
1740,0.2988
1741,0.2789
1742,0.3188
1743,0.1992
1744,-0.1195
1745,-0.0996
1746,0.0199
1747,0.0598
1748,0.0000
1749,-0.1594
1750,-0.1594
1751,-0.3387
1752,-0.3984
1753,-0.3188
1754,-0.1195
1755,0.0996
1756,0.0797
1757,0.1395
1758,0.1992
1759,0.0398
1760,-0.0398
1761,-0.2789
1762,-0.3586
1763,-0.2191
1764,0.0000
1765,0.1992
1766,0.3586
1767,0.3785
1768,0.3586
1769,0.2789
1770,0.0996
1771,-0.0797
1772,-0.1594
1773,-0.1793
1774,-0.2391
1775,-0.2391
1776,-0.2590
1777,-0.1793
1778,-0.1594
1779,-0.1793
1780,-0.0996
1781,-0.0598
1782,0.0000
1783,0.0598
1784,0.0199
1785,0.0199
1786,0.3785
1787,0.4582
1788,0.1195
1789,-0.1793
1790,-0.3984
1791,-0.5777
1792,-0.5578
1793,-0.2191
1794,-0.0199
1795,0.3984
1796,0.4980
1797,0.3188
1798,0.1395
1799,-0.1992
1800,-0.1793
1801,-0.0797
1802,-0.0996
1803,-0.0199
1804,0.0398
1805,0.0797
1806,0.0996
1807,-0.0199
1808,-0.0199
1809,-0.0797
1810,-0.0398
1811,-0.1195
1812,-0.2191
1813,-0.2590
1814,-0.1594
1815,0.0000
1816,0.2191
1817,0.1992
1818,0.1594
1819,0.0598
1820,0.0398
1821,0.0199
1822,0.0199
1823,0.0199
1824,0.0199
1825,0.1195
1826,0.2590
1827,0.0996
1828,0.0598
1829,0.0000
1830,0.0000
1831,0.0598
1832,0.0398
1833,-0.0398
1834,-0.3387
1835,-0.4781
1836,-0.2789
1837,0.2191
1838,0.4582
1839,0.3586
1840,0.1395
1841,0.0199
1842,0.0000
1843,-0.0398
1844,0.0199
1845,0.0996
1846,0.0199
1847,-0.0996
1848,-0.1395
1849,-0.0996
1850,-0.2191
1851,-0.1195
1852,-0.0996
1853,-0.0996
1854,-0.0398
1855,-0.1395
1856,-0.1992
1857,-0.2590
1858,-0.1793
1859,0.0000
1860,0.1395
1861,0.1594
1862,-0.0199
1863,-0.2590
1864,-0.3785
1865,-0.4781
1866,-0.3188
1867,-0.1395
1868,0.0996
1869,0.1195
1870,0.0996
1871,0.1195
1872,0.1195
1873,0.1195
1874,0.0398
1875,-0.0598
1876,-0.1395
1877,-0.0996
1878,0.0199
1879,-0.1594
1880,-0.2191
1881,-0.1992
1882,-0.1395
1883,-0.0398
1884,0.2391
1885,0.2988
1886,0.1793
1887,0.1793
1888,0.0598
1889,-0.0398
1890,0.0398
1891,0.0398
1892,-0.0598
1893,-0.0598
1894,-0.2391
1895,-0.0199
1896,0.0199
1897,0.1395
1898,0.0797
1899,-0.1195
1900,-0.1793
1901,-0.1395
1902,-0.1195
1903,0.1195
1904,0.1594
1905,0.0598
1906,0.0199
1907,0.0598
1908,0.0199
1909,0.0199
1910,-0.0199
1911,-0.0598
1912,0.0199
1913,-0.0199
1914,0.0598
1915,0.0199
1916,-0.0797
1917,-0.1195
1918,-0.1395
1919,-0.1594
1920,-0.0797
1921,-0.0797
1922,0.0398
1923,0.1395
1924,0.2391
1925,0.1793
1926,0.1594
1927,0.0996
1928,0.0199
1929,0.0199
1930,-0.0398
1931,-0.0996
1932,0.0398
1933,0.0398
1934,0.0000
1935,0.1195
1936,0.1195
1937,0.1992
1938,0.1195
1939,-0.0199
1940,-0.1195
1941,-0.0996
1942,0.0000
1943,0.0598
1944,0.0598
1945,0.0797
1946,0.1793
1947,0.0598
1948,0.1594
1949,0.1594
1950,-0.0398
1951,-0.0797
1952,0.0398
1953,0.1992
1954,0.2191
1955,0.3984
1956,0.4980
1957,0.2590
1958,0.0996
1959,-0.0797
1960,-0.0797
1961,-0.0199
1962,0.0598
1963,0.1793
1964,0.2391
1965,0.2191
1966,0.2191
1967,0.1793
1968,0.1594
1969,0.1395
1970,0.0797
1971,-0.0398
1972,0.0000
1973,0.0398
1974,0.0000
1975,-0.0598
1976,-0.1195
1977,-0.1195
1978,-0.1195
1979,0.0398
1980,0.2191
1981,0.0398
1982,-0.1594
1983,-0.2988
1984,-0.2988
1985,-0.1992
1986,-0.0996
1987,-0.0797
1988,0.0797
1989,0.1195
1990,-0.0199
1991,-0.0996
1992,-0.1793
1993,-0.1395
1994,-0.0398
1995,0.0797
1996,0.0598
1997,-0.0199
1998,0.0398
1999,-0.0797
2000,-0.1992
2001,-0.1395
2002,-0.1594
2003,-0.0797
2004,0.0000
2005,0.0000
2006,0.0398
2007,-0.0199
2008,-0.0199
2009,-0.0199
2010,-0.1195
2011,-0.3785
2012,-0.3387
2013,-0.0996
2014,-0.0398
2015,0.0996
2016,0.0598
2017,0.0996
2018,0.1395
2019,0.1793
2020,0.3387
2021,0.2590
2022,0.0797
2023,0.0996
2024,0.1793
2025,0.1195
2026,0.0797
2027,-0.0398
2028,-0.1793
2029,-0.0398
2030,0.1195
2031,0.2789
2032,0.2988
2033,0.1793
2034,0.1594
2035,0.1395
2036,0.0797
2037,0.0199
2038,0.0000
2039,-0.0398
2040,0.0199
2041,0.1195
2042,0.0398
2043,-0.0598
2044,-0.2391
2045,-0.2590
2046,-0.2590
2047,-0.1793
2048,-0.0996
2049,-0.0996
2050,-0.0199
2051,0.0398
2052,0.0199
2053,0.0797
2054,0.2988
2055,0.2988
2056,0.1594
2057,0.0996
2058,0.1395
2059,0.1195
2060,0.1395
2061,0.1793
2062,0.0996
2063,0.1195
2064,0.1195
2065,0.1594
2066,0.1195
2067,-0.0199
2068,0.0000
2069,0.0398
2070,0.2191
2071,0.1992
2072,0.1195
2073,0.0199
2074,-0.0996
2075,-0.1395
2076,-0.1395
2077,0.0797
2078,0.1992
2079,0.2191
2080,0.1195
2081,-0.1195
2082,-0.2590
2083,-0.2988
2084,-0.1992
2085,-0.2789
2086,-0.1594
2087,0.1793
2088,0.4184
2089,0.3984
2090,0.3785
2091,0.2988
2092,0.0797
2093,-0.1793
2094,-0.2789
2095,-0.1992
2096,-0.1594
2097,-0.1195
2098,-0.1594
2099,-0.2590
2100,-0.1793
2101,-0.1395
2102,0.0797
2103,0.2590
2104,0.2988
2105,0.3586
2106,0.3984
2107,0.4582
2108,0.3188
2109,0.1594
2110,0.0398
2111,0.0996
2112,0.0398
2113,-0.0199
2114,-0.0398
2115,-0.0598
2116,-0.0199
2117,0.0398
2118,-0.0797
2119,-0.1195
2120,-0.1195
2121,-0.1992
2122,-0.1793
2123,-0.2191
2124,-0.1594
2125,-0.0598
2126,-0.0398
2127,0.0398
2128,0.0598
2129,0.0797
2130,0.0797
2131,0.0199
2132,-0.0797
2133,-0.0996
2134,-0.0598
2135,0.0598
2136,-0.0398
2137,-0.1594
2138,-0.2391
2139,-0.4980
2140,-0.6176
2141,-0.2590
2142,0.0996
2143,0.1793
2144,0.2191
2145,0.2191
2146,0.0797
2147,0.0598
2148,0.0398
2149,-0.0598
2150,-0.1594
2151,-0.0797
2152,-0.0398
2153,0.0000
2154,-0.0199
2155,-0.1195
2156,-0.2590
2157,-0.2391
2158,-0.3586
2159,-0.4980
2160,-0.4184
2161,-0.3984
2162,-0.2391
2163,-0.2191
2164,-0.2191
2165,-0.1793
2166,-0.2191
2167,-0.2391
2168,-0.2789
2169,-0.2590
2170,-0.2391
2171,-0.1992
2172,-0.1594
2173,-0.1195
2174,-0.1395
2175,-0.1594
2176,-0.2988
2177,-0.3387
2178,-0.4582
2179,-0.3984
2180,-0.0797
2181,0.0797
2182,0.0797
2183,0.1992
2184,0.0598
2185,-0.2191
2186,-0.3188
2187,-0.3785
2188,-0.2988
2189,-0.1195
2190,0.0000
2191,0.1992
2192,0.1992
2193,0.0398
2194,-0.0199
2195,-0.1395
2196,-0.1793
2197,-0.1594
2198,-0.1594
2199,-0.0598
2200,0.3188
2201,0.4980
2202,0.2988
2203,-0.1395
2204,-0.3188
2205,-0.3785
2206,-0.3586
2207,-0.2391
2208,-0.2391
2209,-0.1992
2210,-0.1395
2211,-0.0797
2212,-0.1793
2213,-0.1793
2214,-0.0996
2215,-0.0996
2216,-0.1594
2217,-0.2391
2218,-0.1992
2219,-0.1793
2220,-0.0797
2221,0.0199
2222,0.0598
2223,0.0797
2224,0.1195
2225,0.1395
2226,0.0797
2227,0.1395
2228,0.0000
2229,0.1793
2230,0.0598
2231,0.0000
2232,-0.1195
2233,-0.3586
2234,-0.2789
2235,-0.0598
2236,0.1395
2237,0.1793
2238,0.0797
2239,-0.0797
2240,-0.1594
2241,-0.2191
2242,-0.1594
2243,-0.0398
2244,-0.0598
2245,-0.0797
2246,0.0000
2247,0.1594
2248,0.3785
2249,0.3188
2250,0.2391
2251,0.1992
2252,0.1594
2253,0.1195
2254,0.0000
2255,0.0000
2256,0.0996
2257,0.1195
2258,0.0199
2259,0.0199
2260,-0.0199
2261,-0.0398
2262,0.0996
2263,0.1395
2264,-0.1395
2265,-0.0797
2266,-0.0398
2267,0.1395
2268,0.3188
2269,0.3586
2270,0.2988
2271,0.3387
2272,0.3387
2273,0.3785
2274,0.2191
2275,0.0797
2276,0.0598
2277,0.0797
2278,0.0398
2279,0.0398
2280,0.0598
2281,0.1395
2282,0.1395
2283,0.0398
2284,-0.0598
2285,-0.0398
2286,-0.0598
2287,-0.0398
2288,-0.0398
2289,0.0000
2290,0.2191
2291,-0.0398
2292,-0.0797
2293,0.0398
2294,0.0598
2295,0.0598
2296,-0.0598
2297,-0.2988
2298,-0.1793
2299,0.0398
2300,0.1992
2301,0.1793
2302,0.0797
2303,-0.1594
2304,-0.0598
2305,0.0000
2306,0.0797
2307,0.0598
2308,0.1395
2309,0.1594
2310,0.1594
2311,0.1793
2312,0.2391
2313,0.1992
2314,0.0996
2315,0.0996
2316,0.0797
2317,0.0000
2318,0.0000
2319,-0.0199
2320,-0.0996
2321,-0.1395
2322,-0.0797
2323,-0.1793
2324,-0.0598
2325,-0.0199
2326,-0.0598
2327,-0.1395
2328,-0.2590
2329,-0.3188
2330,-0.2590
2331,-0.2191
2332,-0.0598
2333,0.0797
2334,0.1992
2335,0.2590
2336,0.1395
2337,0.2391
2338,0.3586
2339,-0.0598
2340,-0.1793
2341,-0.1395
2342,-0.1195
2343,-0.1395
2344,-0.3785
2345,-0.4383
2346,-0.2789
2347,0.1195
2348,0.3387
2349,0.2391
2350,0.3785
2351,0.3188
2352,0.2988
2353,0.2391
2354,0.0797
2355,0.1395
2356,0.1992
2357,0.1594
2358,0.1195
2359,0.0000
2360,0.0000
2361,-0.0199
2362,-0.0598
2363,-0.0598
2364,0.0797
2365,0.0996
2366,0.0797
2367,-0.0199
2368,0.0398
2369,0.0000
2370,-0.0598
2371,0.0996
2372,0.0797
2373,0.0000
2374,-0.1395
2375,-0.1793
2376,-0.1594
2377,-0.1594
2378,0.0598
2379,0.2391
2380,0.0797
2381,-0.3188
2382,-0.7172
2383,-0.4383
2384,-0.0797
2385,0.1594
2386,0.1992
2387,0.0598
2388,-0.0797
2389,-0.1195
2390,-0.0797
2391,-0.0398
2392,0.1195
2393,0.2191
2394,0.1793
2395,0.1793
2396,0.1793
2397,0.1395
2398,0.0797
2399,0.0398
2400,0.0398
2401,0.0000
2402,0.0797
2403,0.0199
2404,-0.0598
2405,0.0000
2406,-0.0797
2407,-0.2789
2408,-0.2391
2409,-0.1793
2410,-0.1793
2411,-0.2391
2412,-0.1395
2413,0.0000
2414,0.1594
2415,0.2191
2416,0.1195
2417,0.1195
2418,0.1793
2419,0.2789
2420,0.4383
2421,0.3785
2422,0.2590
2423,0.0996
2424,0.0398
2425,-0.0996
2426,-0.2191
2427,-0.2191
2428,-0.2590
2429,-0.1395
2430,0.6973
2431,0.7172
2432,0.2191
2433,-0.1793
2434,-0.4582
2435,-0.5180
2436,-0.4184
2437,-0.0996
2438,0.0996
2439,0.2789
2440,0.2391
2441,0.1793
2442,0.1395
2443,0.0398
2444,0.0000
2445,0.0797
2446,-0.0797
2447,-0.2391
2448,-0.1793
2449,-0.0996
2450,-0.0797
2451,0.0000
2452,0.0996
2453,0.1992
2454,0.2590
2455,0.3188
2456,0.2988
2457,0.0797
2458,-0.0797
2459,-0.1594
2460,-0.0199
2461,0.0398
2462,0.2590
2463,0.2191
2464,0.0398
2465,0.0797
2466,0.0598
2467,0.0797
2468,0.0199
2469,-0.0199
2470,-0.0996
2471,-0.1594
2472,-0.1195
2473,0.0996
2474,0.5180
2475,0.4383
2476,0.0000
2477,-0.3785
2478,-0.5578
2479,-0.5578
2480,-0.4781
2481,-0.1992
2482,-0.0398
2483,0.0000
2484,0.0000
2485,-0.0199
2486,-0.0797
2487,-0.0398
2488,0.0598
2489,0.0996
2490,0.0996
2491,-0.0797
2492,-0.1594
2493,-0.1992
2494,-0.1793
2495,-0.0398
2496,0.0398
2497,-0.0996
2498,-0.0598
2499,0.0199
2500,0.0000
2501,0.0000
2502,0.0797
2503,0.0996
2504,0.0199
2505,-0.0398
2506,0.0199
2507,0.3785
2508,0.3387
2509,-0.1395
2510,-0.5578
2511,-0.6973
2512,-0.4383
2513,-0.0598
2514,0.1992
2515,0.1395
2516,0.1594
2517,0.1793
2518,0.0398
2519,-0.0398
2520,-0.1395
2521,-0.1793
2522,-0.1195
2523,0.0797
2524,0.1594
2525,0.5180
2526,0.6773
2527,0.3984
2528,0.1594
2529,-0.1395
2530,-0.1992
2531,-0.1992
2532,-0.0598
2533,-0.1992
2534,-0.0199
2535,0.0797
2536,-0.0199
2537,0.0199
2538,0.0996
2539,0.1594
2540,0.1793
2541,0.0996
2542,0.0598
2543,0.0598
2544,0.1992
2545,0.1992
2546,0.0398
2547,-0.0598
2548,-0.1793
2549,-0.3387
2550,-0.3984
2551,-0.2988
2552,-0.1195
2553,0.0000
2554,0.0996
2555,0.1195
2556,0.1594
2557,0.0398
2558,0.0797
2559,0.0996
2560,0.1395
2561,0.0199
2562,-0.0199
2563,-0.1195
2564,-0.1594
2565,-0.1395
2566,-0.1395
2567,-0.1594
2568,-0.1992
2569,-0.1395
2570,-0.1793
2571,-0.2988
2572,-0.2191
2573,-0.1992
2574,-0.1992
2575,-0.0797
2576,-0.0199
2577,-0.0199
2578,-0.0398
2579,0.0797
2580,0.0598
2581,0.0797
2582,-0.0199
2583,-0.1594
2584,-0.1395
2585,-0.1594
2586,-0.0797
2587,-0.0598
2588,-0.0398
2589,0.0598
2590,0.2191
2591,0.1992
2592,0.1395
2593,0.3188
2594,0.0598
2595,-0.4383
2596,-0.7570
2597,-0.5379
2598,0.0996
2599,0.6773
2600,0.7172
2601,0.5180
2602,0.2590
2603,-0.1395
2604,-0.2590
2605,-0.2988
2606,-0.1992
2607,-0.0797
2608,-0.0199
2609,0.0996
2610,0.2391
2611,0.2590
2612,0.1992
2613,0.0797
2614,0.0797
2615,-0.0598
2616,-0.2191
2617,-0.2789
2618,-0.2988
2619,-0.3188
2620,-0.2988
2621,-0.2391
2622,-0.1594
2623,-0.0598
2624,-0.0598
2625,0.0199
2626,-0.1195
2627,-0.1793
2628,-0.1992
2629,-0.0996
2630,-0.1395
2631,-0.0797
2632,-0.0398
2633,-0.0199
2634,0.0000
2635,0.0199
2636,-0.0398
2637,-0.0996
2638,-0.1594
2639,-0.1195
2640,0.0199
2641,0.0598
2642,0.0000
2643,-0.3387
2644,-0.5180
2645,-0.3785
2646,-0.3387
2647,-0.2191
2648,-0.1992
2649,-0.2391
2650,-0.0598
2651,0.0000
2652,0.2191
2653,0.3188
2654,0.2789
2655,0.1594
2656,0.1195
2657,0.0000
2658,0.0199
2659,0.0199
2660,-0.0398
2661,-0.1195
2662,-0.0996
2663,-0.0199
2664,-0.0199
2665,-0.0996
2666,-0.1992
2667,-0.1793
2668,-0.1793
2669,-0.1793
2670,-0.1594
2671,-0.1793
2672,-0.0598
2673,-0.1594
2674,-0.1992
2675,-0.0199
2676,-0.1992
2677,-0.2988
2678,-0.3586
2679,-0.4781
2680,-0.1395
2681,0.2988
2682,0.7570
2683,0.8367
2684,0.6574
2685,0.3785
2686,0.2391
2687,0.1793
2688,0.1195
2689,0.0598
2690,0.0598
2691,0.0797
2692,-0.0398
2693,-0.0598
2694,0.0000
2695,0.0398
2696,0.0199
2697,-0.0598
2698,-0.0398
2699,0.0000
2700,-0.0199
2701,-0.1594
2702,-0.1395
2703,-0.1395
2704,-0.0996
2705,-0.0398
2706,-0.0797
2707,-0.0398
2708,-0.0598
2709,-0.2391
2710,-0.3984
2711,-0.4582
2712,-0.2391
2713,-0.0199
2714,0.2590
2715,0.4184
2716,0.4184
2717,0.3586
2718,0.1395
2719,0.2391
2720,0.2590
2721,0.0598
2722,-0.2191
2723,-0.4184
2724,-0.5180
2725,-0.3387
2726,-0.0797
2727,0.0598
2728,0.2191
2729,0.0598
2730,-0.0199
2731,-0.2191
2732,-0.0797
2733,0.0199
2734,-0.0598
2735,-0.0996
2736,-0.0598
2737,0.0797
2738,0.1395
2739,-0.0199
2740,-0.1793
2741,-0.2988
2742,-0.2789
2743,-0.2590
2744,-0.1195
2745,-0.1594
2746,-0.1195
2747,-0.1195
2748,-0.1992
2749,-0.2789
2750,0.0996
2751,0.1195
2752,0.0199
2753,0.0398
2754,0.0199
2755,0.0398
2756,0.1793
2757,0.1395
2758,0.0598
2759,0.1395
2760,0.2391
2761,0.1395
2762,-0.0199
2763,-0.0797
2764,-0.1195
2765,-0.1992
2766,-0.0797
2767,-0.0199
2768,-0.0398
2769,-0.0797
2770,-0.0199
2771,-0.1395
2772,0.0996
2773,0.4383
2774,0.4184
2775,0.1594
2776,0.0797
2777,0.0398
2778,0.1195
2779,0.2191
2780,0.0797
2781,0.0000
2782,0.0000
2783,-0.0797
2784,0.0000
2785,-0.0199
2786,-0.0996
2787,-0.2191
2788,-0.2391
2789,-0.0199
2790,0.0996
2791,0.0797
2792,0.0398
2793,-0.0398
2794,0.0000
2795,0.0797
2796,0.1793
2797,0.2988
2798,0.2391
2799,0.1992
2800,0.1395
2801,0.0398
2802,0.0598
2803,0.1195
2804,0.0797
2805,0.0398
2806,0.0398
2807,0.0199
2808,0.0598
2809,0.1395
2810,0.1992
2811,0.1395
2812,0.0199
2813,-0.0996
2814,-0.0398
2815,-0.0797
2816,-0.2191
2817,-0.1195
2818,-0.0199
2819,0.0199
2820,0.0598
2821,-0.0996
2822,-0.1793
2823,0.0000
2824,-0.0199
2825,-0.0598
2826,-0.1395
2827,-0.1793
2828,-0.0996
2829,-0.0598
2830,0.0199
2831,0.0000
2832,0.1395
2833,0.0398
2834,0.0598
2835,0.0398
2836,0.0000
2837,0.2391
2838,0.3387
2839,0.1195
2840,-0.0398
2841,-0.1793
2842,0.0398
2843,0.2391
2844,0.3984
2845,0.5379
2846,0.3984
2847,0.1594
2848,-0.0797
2849,-0.1195
2850,-0.0398
2851,0.0996
2852,0.1992
2853,0.1992
2854,0.2391
2855,0.3586
2856,0.2988
2857,0.2988
2858,0.2789
2859,0.1992
2860,0.1395
2861,0.0199
2862,-0.0199
2863,-0.1395
2864,-0.2191
2865,-0.1594
2866,-0.0398
2867,0.0598
2868,0.0996
2869,0.3984
2870,0.4582
2871,0.3387
2872,0.3984
2873,0.3387
2874,0.0398
2875,-0.0996
2876,-0.0398
2877,0.0000
2878,0.0000
2879,0.0398
2880,0.1195
2881,0.0797
2882,0.1992
2883,0.2191
2884,0.1395
2885,0.0199
2886,-0.0996
2887,-0.0199
2888,-0.0199
2889,-0.0398
2890,0.0398
2891,0.0598
2892,0.0996
2893,0.0996
2894,0.1195
2895,0.0398
2896,-0.0199
2897,-0.0797
2898,-0.1992
2899,-0.2191
2900,-0.2191
2901,-0.1195
2902,-0.0398
2903,0.0398
2904,-0.0398
2905,0.0000
2906,-0.0598
2907,0.0000
2908,0.0598
2909,-0.0199
2910,0.0199
2911,0.2590
2912,0.3188
2913,0.2988
2914,0.2590
2915,0.2789
2916,0.2191
2917,0.0996
2918,-0.1195
2919,-0.0797
2920,0.0199
2921,0.0598
2922,0.0996
2923,0.0398
2924,0.0797
2925,0.1992
2926,0.1395
2927,0.1594
2928,0.1594
2929,0.0598
2930,0.1195
2931,0.0398
2932,0.0398
2933,-0.0598
2934,-0.1992
2935,-0.2789
2936,-0.2391
2937,-0.1594
2938,-0.0996
2939,-0.0199
2940,0.0199
2941,-0.0398
2942,-0.0598
2943,-0.1195
2944,0.0398
2945,0.0598
2946,-0.0996
2947,-0.2590
2948,-0.3188
2949,-0.2590
2950,-0.1195
2951,-0.3387
2952,-0.3984
2953,-0.2590
2954,0.0398
2955,0.1793
2956,0.3387
2957,0.4184
2958,0.2391
2959,-0.2789
2960,-0.1594
2961,-0.2988
2962,-0.2988
2963,-0.2789
2964,-0.2191
2965,0.0000
2966,0.2191
2967,0.2789
2968,0.3984
2969,0.3984
2970,0.1992
2971,0.1793
2972,0.1395
2973,0.0199
2974,0.0199
2975,-0.0797
2976,-0.1195
2977,-0.0199
2978,0.0199
2979,0.0199
2980,-0.0398
2981,-0.1395
2982,-0.1594
2983,-0.1594
2984,-0.0797
2985,-0.0996
2986,-0.0797
2987,-0.2391
2988,-0.3387
2989,-0.3188
2990,-0.3387
2991,-0.3586
2992,-0.4582
2993,-0.4582
2994,-0.2988
2995,-0.1793
2996,-0.0199
2997,0.1195
2998,0.0598
2999,0.0398
3000,-0.0199
3001,0.0199
3002,-0.0199
3003,0.1195
3004,0.0797
3005,0.0398
3006,0.1195
3007,0.0398
3008,0.1594
3009,0.2191
3010,0.0598
3011,-0.1793
3012,-0.3785
3013,-0.4980
3014,-0.4582
3015,-0.3586
3016,-0.4980
3017,-0.3387
3018,-0.2988
3019,-0.2590
3020,-0.0996
3021,-0.0199
3022,0.0797
3023,0.1594
3024,0.2590
3025,0.2191
3026,0.2191
3027,0.0996
3028,0.0199
3029,-0.1395
3030,-0.0398
3031,0.2191
3032,0.0398
3033,-0.0398
3034,-0.0996
3035,-0.1395
3036,-0.1594
3037,-0.2391
3038,-0.2590
3039,-0.3387
3040,-0.3586
3041,-0.1793
3042,0.0199
3043,0.0996
3044,0.0996
3045,0.1195
3046,-0.0398
3047,0.0598
3048,0.1793
3049,0.2391
3050,0.2789
3051,0.3387
3052,0.2988
3053,0.2191
3054,0.1992
3055,0.0797
3056,0.0199
3057,0.0598
3058,-0.0797
3059,-0.1594
3060,-0.0398
3061,-0.0398
3062,0.1395
3063,0.0398
3064,-0.0797
3065,-0.0797
3066,-0.0797
3067,-0.0199
3068,-0.0598
3069,-0.0797
3070,-0.0398
3071,0.0199
3072,0.1195
3073,0.0598
3074,0.0398
3075,0.0000
3076,0.0000
3077,0.0398
3078,0.0398
3079,-0.0398
3080,0.0598
3081,0.0598
3082,-0.0797
3083,-0.2988
3084,-0.3586
3085,-0.3785
3086,-0.1992
3087,-0.0797
3088,0.1594
3089,0.3984
3090,0.5777
3091,0.3984
3092,0.2988
3093,0.2191
3094,0.0598
3095,-0.0598
3096,-0.0398
3097,-0.1395
3098,-0.1195
3099,-0.1395
3100,-0.2789
3101,-0.2988
3102,-0.1793
3103,-0.0797
3104,-0.0199
3105,0.0797
3106,0.0398
3107,0.0398
3108,-0.0797
3109,0.0000
3110,-0.1395
3111,-0.2191
3112,-0.1793
3113,-0.1594
3114,-0.1992
3115,-0.2191
3116,-0.1793
3117,-0.0996
3118,0.0398
3119,0.0598
3120,0.1395
3121,0.1195
3122,0.0797
3123,-0.0598
3124,-0.0398
3125,0.0000
3126,-0.1594
3127,-0.1594
3128,-0.0199
3129,0.0199
3130,0.0996
3131,0.0000
3132,-0.0398
3133,0.0199
3134,0.0598
3135,-0.0199
3136,-0.0199
3137,0.0000
3138,0.0000
3139,0.0199
3140,0.0598
3141,0.1594
3142,0.1395
3143,-0.0996
3144,-0.0996
3145,-0.0199
3146,0.0996
3147,0.2191
3148,0.2191
3149,0.1992
3150,0.2391
3151,0.2789
3152,0.2789
3153,0.2191
3154,0.1395
3155,0.0000
3156,0.0797
3157,0.1992
3158,0.2191
3159,0.1992
3160,0.1992
3161,0.1195
3162,0.0996
3163,-0.0199
3164,-0.0797
3165,-0.0598
3166,-0.2191
3167,-0.1793
3168,-0.1793
3169,-0.0598
3170,0.0797
3171,-0.0598
3172,-0.0598
3173,-0.1594
3174,-0.1594
3175,-0.1395
3176,-0.1395
3177,0.1992
3178,0.1395
3179,0.0598
3180,-0.2391
3181,-0.3387
3182,-0.2789
3183,-0.0598
3184,0.0199
3185,0.0199
3186,0.1594
3187,0.1195
3188,0.0996
3189,0.1594
3190,0.1594
3191,0.1395
3192,0.0996
3193,-0.0996
3194,-0.1793
3195,-0.2391
3196,-0.2988
3197,-0.2789
3198,-0.2391
3199,-0.1793
3200,-0.1793
3201,-0.1793
3202,-0.2391
3203,-0.3586
3204,-0.2391
3205,-0.0996
3206,0.1594
3207,0.4781
3208,0.4582
3209,0.2988
3210,0.2590
3211,0.2391
3212,0.2789
3213,0.1992
3214,0.2191
3215,0.0398
3216,-0.0797
3217,-0.1195
3218,-0.2391
3219,-0.1793
3220,-0.1594
3221,-0.1793
3222,-0.0199
3223,0.0598
3224,0.0598
3225,-0.0598
3226,-0.1793
3227,-0.2590
3228,-0.1992
3229,-0.1395
3230,-0.0797
3231,-0.0598
3232,0.0598
3233,0.0797
3234,0.1793
3235,0.1992
3236,0.1793
3237,0.1793
3238,0.0000
3239,0.0398
3240,0.0797
3241,0.0000
3242,-0.0797
3243,-0.1195
3244,-0.1992
3245,0.0000
3246,0.1395
3247,0.0598
3248,-0.0199
3249,-0.0996
3250,-0.1992
3251,-0.1594
3252,-0.0398
3253,0.0199
3254,0.0199
3255,-0.0598
3256,-0.3188
3257,-0.1992
3258,-0.1395
3259,0.0996
3260,0.3586
3261,0.4383
3262,0.2789
3263,0.1594
3264,-0.1195
3265,-0.0598
3266,-0.1594
3267,-0.1395
3268,-0.1195
3269,-0.2191
3270,-0.1793
3271,-0.1195
3272,-0.0398
3273,-0.1195
3274,-0.0996
3275,-0.0398
3276,-0.1395
3277,-0.0398
3278,-0.0598
3279,0.0199
3280,0.0000
3281,-0.0199
3282,0.0598
3283,0.0199
3284,0.0000
3285,0.0797
3286,0.1594
3287,0.1594
3288,0.0996
3289,0.0199
3290,-0.0797
3291,-0.1793
3292,-0.2191
3293,-0.2191
3294,0.0598
3295,0.3387
3296,0.0996
3297,-0.0797
3298,-0.2988
3299,-0.2988
3300,-0.1395
3301,0.0000
3302,0.0797
3303,0.0996
3304,0.1992
3305,0.2191
3306,0.0797
3307,0.0598
3308,0.0398
3309,-0.0199
3310,0.0598
3311,0.0797
3312,-0.0199
3313,-0.1195
3314,-0.1992
3315,-0.1793
3316,-0.0398
3317,0.0199
3318,-0.0598
3319,-0.1395
3320,-0.2789
3321,-0.2988
3322,-0.1395
3323,-0.0598
3324,0.0398
3325,0.0996
3326,0.1594
3327,0.1992
3328,0.1793
3329,0.1594
3330,0.0000
3331,-0.0797
3332,-0.0598
3333,-0.1793
3334,-0.1594
3335,-0.2590
3336,-0.2590
3337,-0.1992
3338,-0.1793
3339,-0.0996
3340,0.2391
3341,0.3984
3342,0.4184
3343,0.1793
3344,0.0598
3345,0.0398
3346,-0.0398
3347,-0.1395
3348,-0.1992
3349,-0.1992
3350,-0.1992
3351,-0.1992
3352,-0.1594
3353,-0.0199
3354,0.0996
3355,0.0199
3356,-0.0199
3357,-0.0598
3358,-0.0199
3359,-0.0398
3360,-0.2391
3361,-0.3586
3362,-0.3586
3363,-0.1793
3364,-0.0797
3365,0.0199
3366,0.0199
3367,0.0598
3368,0.0598
3369,0.1793
3370,0.2191
3371,0.2191
3372,0.1395
3373,0.1395
3374,0.1594
3375,0.1793
3376,0.0996
3377,0.1594
3378,0.1594
3379,0.1395
3380,0.0996
3381,-0.0598
3382,0.0598
3383,0.1395
3384,0.0598
3385,0.0598
3386,0.1195
3387,0.0797
3388,0.0398
3389,0.0000
3390,0.0598
3391,0.1195
3392,0.0199
3393,-0.0797
3394,-0.2590
3395,-0.1395
3396,-0.0598
3397,0.1195
3398,0.1793
3399,0.2988
3400,0.0996
3401,0.0199
3402,-0.0398
3403,0.0598
3404,0.1793
3405,0.2988
3406,0.2590
3407,0.2789
3408,0.2191
3409,0.1992
3410,0.1395
3411,0.1395
3412,0.1594
3413,0.1594
3414,0.0996
3415,0.1594
3416,0.1195
3417,0.1195
3418,0.0199
3419,0.3188
3420,0.3387
3421,0.0398
3422,-0.3188
3423,-0.3984
3424,-0.3387
3425,-0.1793
3426,0.1195
3427,0.1793
3428,0.1793
3429,0.2391
3430,0.1594
3431,0.0398
3432,0.0000
3433,0.0598
3434,0.0398
3435,0.0398
3436,-0.0598
3437,0.0598
3438,0.0000
3439,-0.0199
3440,-0.1594
3441,-0.2590
3442,-0.3387
3443,-0.3785
3444,-0.2789
3445,-0.1793
3446,-0.0199
3447,0.1395
3448,0.3387
3449,0.2789
3450,0.1594
3451,0.0000
3452,-0.0797
3453,-0.0996
3454,-0.1195
3455,-0.1793
3456,-0.2191
3457,-0.1992
3458,-0.0797
3459,-0.0598
3460,0.0598
3461,-0.0996
3462,-0.2391
3463,-0.3188
3464,-0.1992
3465,-0.1594
3466,-0.0598
3467,-0.0398
3468,0.0000
3469,0.0996
3470,0.0996
3471,0.1195
3472,0.0598
3473,0.0000
3474,-0.0398
3475,-0.1195
3476,0.0000
3477,0.0000
3478,-0.0199
3479,-0.1195
3480,-0.1195
3481,-0.0996
3482,-0.0398
3483,-0.1395
3484,-0.1195
3485,-0.2391
3486,-0.3387
3487,-0.2391
3488,-0.0398
3489,0.0199
3490,-0.0598
3491,-0.1793
3492,-0.1992
3493,-0.0598
3494,0.0398
3495,0.2191
3496,0.3785
3497,0.3188
3498,0.1594
3499,-0.0797
3500,-0.0598
3501,-0.0598
3502,-0.0398
3503,0.0598
3504,-0.0199
3505,-0.0598
3506,-0.0996
3507,-0.0398
3508,-0.0797
3509,0.0598
3510,0.1195
3511,0.1992
3512,0.2391
3513,0.1594
3514,0.0199
3515,0.0598
3516,0.0797
3517,0.1793
3518,0.2191
3519,0.2789
3520,0.2391
3521,0.1594
3522,0.1793
3523,0.0398
3524,0.0000
3525,-0.0598
3526,-0.0797
3527,-0.0199
3528,-0.0199
3529,0.0000
3530,0.0000
3531,-0.0199
3532,0.0199
3533,0.0199
3534,0.0996
3535,0.0398
3536,0.0996
3537,0.0598
3538,0.0598
3539,0.1395
3540,0.1395
3541,0.1195
3542,0.2590
3543,0.2590
3544,0.0996
3545,0.0996
3546,0.0000
3547,0.0000
3548,0.0598
3549,0.1395
3550,-0.0199
3551,-0.1594
3552,-0.2391
3553,-0.3586
3554,-0.3188
3555,-0.2191
3556,-0.1395
3557,-0.1395
3558,0.0797
3559,0.0797
3560,0.0598
3561,0.0199
3562,-0.0199
3563,-0.0598
3564,-0.0797
3565,-0.2191
3566,-0.1992
3567,-0.3387
3568,-0.5379
3569,-0.4980
3570,-0.3387
3571,-0.0199
3572,0.1395
3573,0.1395
3574,0.1195
3575,0.0797
3576,0.0797
3577,0.1992
3578,0.1195
3579,0.0598
3580,0.0598
3581,-0.0598
3582,-0.1793
3583,-0.0398
3584,-0.0598
3585,-0.1992
3586,-0.2789
3587,-0.3188
3588,-0.2391
3589,-0.0996
3590,0.0598
3591,0.0996
3592,0.1395
3593,0.2191
3594,0.2590
3595,0.1594
3596,0.0000
3597,-0.1395
3598,0.1395
3599,-0.0398
3600,-0.1793
3601,-0.3188
3602,-0.3188
3603,-0.2391
3604,-0.0996
3605,-0.0598
3606,-0.0398
3607,0.0398
3608,0.0797
3609,0.0797
3610,0.0996
3611,0.0199
3612,-0.0199
3613,-0.1195
3614,-0.0797
3615,-0.0996
3616,0.0000
3617,-0.0199
3618,-0.1195
3619,-0.1992
3620,-0.2789
3621,-0.2590
3622,-0.1195
3623,0.0598
3624,0.1793
3625,0.1793
3626,0.1395
3627,0.0797
3628,0.0797
3629,0.1594
3630,0.0996
3631,-0.0398
3632,-0.1395
3633,-0.2191
3634,-0.0797
3635,0.1395
3636,0.0797
3637,-0.0996
3638,-0.3188
3639,-0.2191
3640,-0.1395
3641,-0.0598
3642,0.0398
3643,0.1395
3644,0.1395
3645,0.0398
3646,0.0398
3647,-0.1195
3648,-0.0797
3649,-0.1594
3650,-0.1395
3651,-0.1793
3652,-0.0797
3653,-0.0199
3654,0.0199
3655,0.0797
3656,0.1594
3657,0.0598
3658,-0.0199
3659,-0.0797
3660,-0.1992
3661,-0.2191
3662,-0.1793
3663,-0.1992
3664,-0.0797
3665,0.0199
3666,0.0000
3667,-0.0996
3668,-0.2191
3669,-0.4980
3670,-0.5578
3671,-0.4383
3672,-0.1992
3673,0.0797
3674,0.2391
3675,0.3984
3676,0.3586
3677,0.2789
3678,0.2988
3679,0.1992
3680,0.1195
3681,0.0398
3682,0.0398
3683,0.0000
3684,0.0398
3685,-0.0598
3686,-0.2590
3687,-0.1195
3688,-0.1395
3689,-0.1992
3690,-0.2191
3691,-0.2590
3692,-0.0996
3693,-0.0199
3694,-0.0598
3695,-0.0199
3696,0.1793
3697,0.2191
3698,0.1195
3699,0.0398
3700,0.1195
3701,0.1195
3702,0.1395
3703,0.0797
3704,0.0598
3705,0.0598
3706,0.1793
3707,0.1992
3708,0.0996
3709,0.0199
3710,-0.0199
3711,-0.1395
3712,-0.0598
3713,0.0398
3714,-0.0199
3715,-0.0797
3716,-0.3188
3717,-0.3984
3718,-0.2191
3719,0.0199
3720,0.2191
3721,0.3785
3722,0.3984
3723,0.1992
3724,0.1793
3725,0.3984
3726,0.3387
3727,0.1395
3728,-0.1395
3729,-0.2789
3730,-0.3785
3731,-0.1195
3732,0.1594
3733,0.2191
3734,0.1594
3735,0.1793
3736,0.1395
3737,0.1594
3738,0.0000
3739,-0.0996
3740,-0.1793
3741,-0.0996
3742,-0.1195
3743,-0.0598
3744,0.0398
3745,0.0797
3746,0.0797
3747,0.1395
3748,0.1594
3749,0.1195
3750,0.0797
3751,0.2391
3752,0.1195
3753,-0.0996
3754,-0.1992
3755,-0.2191
3756,-0.0996
3757,0.0199
3758,0.0000
3759,0.0996
3760,0.0598
3761,-0.0797
3762,-0.0996
3763,-0.1395
3764,-0.1395
3765,-0.1395
3766,-0.0598
3767,-0.0199
3768,-0.0398
3769,0.0199
3770,-0.1195
3771,-0.2391
3772,-0.2789
3773,-0.2191
3774,-0.0996
3775,-0.0996
3776,-0.1395
3777,-0.3387
3778,-0.3586
3779,-0.3188
3780,-0.2391
3781,-0.1195
3782,0.0199
3783,-0.1195
3784,-0.2191
3785,0.0398
3786,0.0398
3787,-0.0598
3788,-0.1395
3789,-0.2789
3790,-0.3188
3791,-0.1395
3792,0.0000
3793,0.0797
3794,0.1594
3795,0.1992
3796,0.0398
3797,0.1395
3798,0.1195
3799,0.1195
3800,0.0000
3801,0.0398
3802,0.0598
3803,0.0398
3804,0.0996
3805,0.0598
3806,0.1195
3807,0.0797
3808,0.0996
3809,0.1992
3810,0.0996
3811,-0.0598
3812,-0.3188
3813,-0.4582
3814,-0.3984
3815,-0.2391
3816,-0.0996
3817,0.0000
3818,-0.0199
3819,0.0598
3820,0.1195
3821,0.1395
3822,0.1195
3823,0.2191
3824,0.3785
3825,0.1992
3826,0.0996
3827,0.0000
3828,-0.2191
3829,-0.1992
3830,-0.1195
3831,0.0398
3832,0.0199
3833,0.1395
3834,0.1395
3835,0.0598
3836,0.0199
3837,0.1992
3838,0.1594
3839,0.0598
3840,-0.0199
3841,-0.0797
3842,-0.0797
3843,0.0398
3844,0.0000
3845,-0.1793
3846,-0.2789
3847,-0.1195
3848,-0.0797
3849,-0.0398
3850,0.1594
3851,0.2789
3852,0.1594
3853,0.0996
3854,0.0199
3855,0.0996
3856,0.1195
3857,0.0199
3858,-0.0996
3859,-0.1992
3860,-0.2789
3861,-0.2988
3862,-0.2789
3863,-0.1992
3864,-0.0797
3865,0.1195
3866,0.0797
3867,0.1395
3868,0.0996
3869,0.1594
3870,0.2391
3871,0.2590
3872,0.4383
3873,0.4980
3874,0.2191
3875,0.1195
3876,0.0199
3877,0.0000
3878,-0.0199
3879,-0.0598
3880,-0.0598
3881,-0.1195
3882,-0.2391
3883,-0.3586
3884,-0.2988
3885,-0.1992
3886,0.0000
3887,0.1195
3888,0.1992
3889,0.3188
3890,0.2191
3891,0.1793
3892,0.0797
3893,-0.0797
3894,-0.1594
3895,-0.1594
3896,-0.0996
3897,-0.0996
3898,-0.1793
3899,-0.3984
3900,-0.4582
3901,-0.5379
3902,-0.3984
3903,-0.2789
3904,-0.1195
3905,0.0199
3906,-0.0199
3907,0.0000
3908,-0.0199
3909,0.0598
3910,0.2191
3911,0.2391
3912,0.0797
3913,0.0199
3914,-0.0398
3915,-0.0598
3916,-0.0398
3917,-0.0199
3918,-0.0598
3919,0.0000
3920,-0.0797
3921,-0.0797
3922,-0.0996
3923,-0.0996
3924,-0.1992
3925,-0.2590
3926,-0.3188
3927,-0.2191
3928,0.0398
3929,0.0996
3930,-0.0598
3931,-0.1594
3932,-0.1992
3933,-0.0398
3934,0.1395
3935,0.2590
3936,0.3188
3937,0.4582
3938,0.4781
3939,0.3984
3940,0.2391
3941,0.2590
3942,0.3984
3943,0.0996
3944,-0.3586
3945,-0.5379
3946,-0.4184
3947,-0.1395
3948,0.0797
3949,0.1594
3950,0.1793
3951,0.1594
3952,0.2191
3953,0.0598
3954,0.0199
3955,0.0598
3956,0.0797
3957,0.2391
3958,0.1793
3959,0.3586
3960,0.2988
3961,0.0797
3962,-0.1793
3963,-0.3188
3964,-0.3785
3965,-0.0996
3966,0.1195
3967,0.1793
3968,0.1195
3969,0.0398
3970,0.1395
3971,0.2391
3972,0.2191
3973,0.1195
3974,-0.0398
3975,-0.0797
3976,-0.1992
3977,-0.0199
3978,0.0797
3979,0.1195
3980,0.0996
3981,-0.0398
3982,-0.1195
3983,-0.2191
3984,-0.1793
3985,-0.0598
3986,0.0398
3987,0.1195
3988,0.0598
3989,0.0199
3990,0.0199
3991,0.1195
3992,0.0398
3993,0.0199
3994,-0.1195
3995,-0.1395
3996,-0.0598
3997,0.1395
3998,0.1395
3999,0.1395
4000,-0.0398
4001,-0.2191
4002,-0.2988
4003,-0.3984
4004,-0.2988
4005,-0.1793
4006,0.0398
4007,0.1594
4008,0.2191
4009,0.2191
4010,0.1992
4011,0.0996
4012,-0.0199
4013,-0.0398
4014,-0.0199
4015,-0.0996
4016,-0.0797
4017,0.0000
4018,-0.0398
4019,-0.0797
4020,-0.0199
4021,0.0996
4022,0.2191
4023,0.3188
4024,0.1195
4025,-0.0996
4026,-0.2191
4027,-0.3188
4028,-0.2391
4029,-0.1395
4030,-0.0598
4031,0.0398
4032,0.0000
4033,-0.0398
4034,-0.1594
4035,-0.1793
4036,-0.0996
4037,0.0398
4038,0.1195
4039,0.0797
4040,-0.0598
4041,-0.0398
4042,-0.0598
4043,-0.0996
4044,-0.0996
4045,-0.1594
4046,-0.2590
4047,-0.4582
4048,-0.4980
4049,-0.5180
4050,-0.3387
4051,-0.2191
4052,-0.1992
4053,-0.1594
4054,-0.1395
4055,0.0598
4056,0.2789
4057,0.3586
4058,0.2391
4059,0.0996
4060,0.0598
4061,0.0398
4062,-0.0199
4063,0.0000
4064,0.0598
4065,-0.0199
4066,-0.1195
4067,-0.0996
4068,-0.0996
4069,-0.1793
4070,-0.0996
4071,-0.0598
4072,-0.0797
4073,-0.1594
4074,-0.2988
4075,-0.4582
4076,-0.5578
4077,-0.6375
4078,-0.4781
4079,-0.2789
4080,-0.0199
4081,0.1992
4082,0.1793
4083,0.2988
4084,0.0398
4085,-0.0598
4086,-0.0797
4087,-0.0598
4088,-0.0996
4089,-0.0398
4090,0.0000
4091,0.0000
4092,0.0996
4093,0.0996
4094,0.1395
4095,0.0996
4096,0.0598
4097,0.0000
4098,-0.1195
4099,-0.0598
4100,-0.0996
4101,-0.0199
4102,0.0199
4103,-0.0199
4104,0.0000
4105,0.0398
4106,0.0797
4107,-0.0797
4108,-0.0996
4109,-0.1195
4110,-0.0598
4111,0.0000
4112,0.0199
4113,0.0598
4114,0.0797
4115,-0.0797
4116,0.0398
4117,-0.0398
4118,-0.0598
4119,0.0398
4120,0.0199
4121,0.0000
4122,-0.0598
4123,0.0598
4124,-0.0398
4125,-0.1594
4126,-0.1594
4127,-0.1793
4128,-0.2789
4129,-0.2391
4130,-0.1793
4131,-0.0598
4132,0.0797
4133,0.0996
4134,0.2191
4135,0.3785
4136,0.2191
4137,0.1793
4138,0.1395
4139,0.1395
4140,0.0797
4141,0.0398
4142,-0.1395
4143,-0.0797
4144,-0.1195
4145,-0.1992
4146,-0.1793
4147,-0.0797
4148,0.0199
4149,0.2191
4150,0.3586
4151,0.2789
4152,0.0598
4153,-0.0598
4154,-0.1195
4155,-0.1195
4156,-0.2988
4157,-0.2590
4158,-0.2391
4159,0.1195
4160,0.1594
4161,0.1395
4162,0.0398
4163,-0.0199
4164,-0.0598
4165,0.0996
4166,0.0598
4167,0.0996
4168,-0.0199
4169,0.0398
4170,0.0598
4171,0.0797
4172,-0.0199
4173,-0.1395
4174,-0.2191
4175,-0.0598
4176,-0.1793
4177,-0.3387
4178,-0.4582
4179,-0.4781
4180,-0.3785
4181,-0.1594
4182,0.0199
4183,0.1195
4184,0.2191
4185,0.1793
4186,0.2789
4187,0.3387
4188,0.2789
4189,0.1395
4190,0.0996
4191,0.0000
4192,0.0199
4193,-0.1395
4194,-0.1992
4195,-0.2590
4196,-0.1793
4197,-0.2988
4198,-0.2988
4199,-0.2191
4200,-0.1594
4201,-0.0598
4202,0.0996
4203,0.0996
4204,0.1195
4205,0.0797
4206,-0.0398
4207,-0.0797
4208,-0.1395
4209,-0.1594
4210,-0.1395
4211,-0.1594
4212,-0.1195
4213,-0.0797
4214,-0.0199
4215,0.2789
4216,0.0996
4217,0.0199
4218,0.0000
4219,-0.0996
4220,-0.1395
4221,-0.0598
4222,-0.0598
4223,-0.0996
4224,-0.0398
4225,-0.0398
4226,-0.0797
4227,-0.0598
4228,-0.0199
4229,-0.0199
4230,-0.0797
4231,0.0996
4232,0.1395
4233,-0.0598
4234,-0.1395
4235,-0.1594
4236,-0.1195
4237,0.0598
4238,0.0797
4239,0.0996
4240,0.0598
4241,0.1395
4242,0.1992
4243,0.1195
4244,-0.0199
4245,0.1992
4246,0.3785
4247,0.2789
4248,0.1793
4249,0.1395
4250,0.1395
4251,0.0996
4252,0.0996
4253,0.0000
4254,0.0797
4255,0.0996
4256,0.0398
4257,-0.0996
4258,-0.2590
4259,-0.2789
4260,-0.1195
4261,-0.1793
4262,-0.0598
4263,0.0797
4264,0.2391
4265,0.3785
4266,0.3785
4267,0.2789
4268,0.2391
4269,0.1793
4270,0.0797
4271,0.0199
4272,0.1195
4273,0.1793
4274,0.2191
4275,0.1594
4276,-0.0598
4277,-0.0996
4278,-0.1195
4279,-0.0996
4280,0.0000
4281,0.0000
4282,0.0797
4283,0.0797
4284,0.0996
4285,0.0797
4286,0.1395
4287,0.0996
4288,0.0598
4289,0.0797
4290,0.0398
4291,0.0199
4292,-0.0797
4293,-0.1594
4294,-0.0598
4295,-0.0199
4296,0.0797
4297,0.0398
4298,-0.0797
4299,-0.0996
4300,0.0000
4301,0.0996
4302,0.1195
4303,0.0996
4304,0.1395
4305,0.2191
4306,0.0000
4307,-0.2789
4308,-0.4582
4309,-0.3586
4310,-0.2391
4311,-0.1395
4312,-0.0398
4313,0.0398
4314,0.0598
4315,0.0797
4316,0.1793
4317,0.1793
4318,0.0996
4319,-0.1395
4320,-0.2191
4321,-0.3188
4322,-0.1793
4323,-0.0797
4324,-0.0398
4325,0.0398
4326,0.2590
4327,0.2988
4328,0.2590
4329,0.2191
4330,0.0797
4331,0.0598
4332,-0.0996
4333,-0.0598
4334,-0.1195
4335,-0.0199
4336,0.0199
4337,0.0398
4338,0.0797
4339,0.0797
4340,-0.0199
4341,-0.2391
4342,-0.3984
4343,-0.2988
4344,-0.2191
4345,-0.0398
4346,0.0398
4347,-0.0199
4348,-0.2191
4349,-0.1793
4350,-0.0797
4351,0.1594
4352,0.2789
4353,0.1992
4354,0.2590
4355,0.1793
4356,0.1793
4357,0.1594
4358,0.0996
4359,-0.0199
4360,-0.0398
4361,-0.0199
4362,-0.0398
4363,-0.0598
4364,0.0398
4365,-0.0797
4366,-0.0598
4367,-0.0797
4368,-0.1594
4369,-0.1992
4370,-0.1195
4371,-0.0598
4372,-0.0996
4373,-0.0598
4374,0.0199
4375,-0.0598
4376,-0.0199
4377,-0.0199
4378,0.0000
4379,-0.0199
4380,-0.0398
4381,-0.2789
4382,-0.3387
4383,-0.2590
4384,-0.1395
4385,0.0000
4386,0.1594
4387,0.3785
4388,0.3387
4389,0.0598
4390,-0.3785
4391,-0.4781
4392,-0.2590
4393,0.0199
4394,0.2191
4395,0.3188
4396,0.3586
4397,0.3984
4398,0.4383
4399,0.4781
4400,0.1992
4401,0.1992
4402,0.1793
4403,0.1195
4404,0.1195
4405,0.0398
4406,0.0797
4407,-0.0199
4408,0.0199
4409,0.0996
4410,0.0199
4411,-0.0598
4412,-0.0398
4413,-0.0598
4414,-0.1793
4415,-0.0797
4416,-0.0996
4417,-0.0797
4418,-0.0996
4419,-0.0996
4420,-0.0199
4421,-0.0199
4422,-0.1195
4423,-0.1195
4424,-0.2391
4425,-0.2590
4426,-0.1395
4427,-0.0199
4428,0.0996
4429,0.2590
4430,0.2590
4431,0.2191
4432,0.2391
4433,0.0000
4434,-0.0598
4435,0.0598
4436,0.0797
4437,-0.1195
4438,-0.2590
4439,-0.4582
4440,-0.3984
4441,-0.2988
4442,-0.1793
4443,-0.1594
4444,-0.1594
4445,-0.0996
4446,-0.0797
4447,-0.1594
4448,-0.1195
4449,0.0996
4450,0.3387
4451,0.1992
4452,-0.0996
4453,-0.2191
4454,-0.2988
4455,-0.3188
4456,-0.1594
4457,0.0398
4458,0.2590
4459,0.2590
4460,0.2988
4461,0.1594
4462,-0.0199
4463,-0.1992
4464,-0.2191
4465,-0.0598
4466,0.0199
4467,0.2391
4468,0.0598
4469,-0.0199
4470,-0.0598
4471,0.0000
4472,0.0398
4473,0.1594
4474,0.0996
4475,-0.0398
4476,0.0000
4477,0.0598
4478,0.0398
4479,-0.2988
4480,-0.3586
4481,-0.1793
4482,0.0797
4483,0.2789
4484,0.3984
4485,0.3984
4486,0.4383
4487,0.2988
4488,0.1992
4489,0.0598
4490,0.1594
4491,0.1793
4492,-0.0598
4493,-0.2590
4494,-0.2391
4495,-0.1992
4496,-0.0398
4497,0.0398
4498,-0.0598
4499,-0.0996
4500,0.0598
4501,0.1594
4502,0.1395
4503,0.1195
4504,0.1195
4505,0.0598
4506,0.0398
4507,0.0398
4508,-0.0199
4509,0.0398
4510,0.0398
4511,0.1195
4512,0.0598
4513,0.0000
4514,-0.0797
4515,-0.1395
4516,-0.1395
4517,-0.0199
4518,-0.0797
4519,-0.1395
4520,-0.1395
4521,-0.0996
4522,-0.0598
4523,0.0996
4524,0.2988
4525,0.1594
4526,0.0598
4527,-0.0398
4528,-0.0199
4529,0.1195
4530,-0.0199
4531,-0.1395
4532,-0.2191
4533,-0.2590
4534,-0.2191
4535,0.0398
4536,0.0000
4537,0.0000
4538,-0.0398
4539,-0.1395
4540,-0.1395
4541,-0.1195
4542,-0.0996
4543,-0.0996
4544,-0.0398
4545,0.0199
4546,-0.0199
4547,-0.1195
4548,-0.2191
4549,-0.2789
4550,-0.3387
4551,-0.2988
4552,-0.2789
4553,-0.2391
4554,-0.1594
4555,-0.0797
4556,-0.0398
4557,-0.0199
4558,0.0996
4559,-0.1195
4560,-0.2590
4561,-0.2590
4562,-0.1992
4563,-0.0199
4564,0.0000
4565,0.0996
4566,-0.0598
4567,-0.1395
4568,-0.0996
4569,-0.0797
4570,-0.0398
4571,0.0598
4572,-0.0598
4573,-0.2590
4574,-0.3387
4575,-0.1395
4576,0.1195
4577,0.1195
4578,0.0199
4579,0.0000
4580,-0.0398
4581,-0.0398
4582,-0.0199
4583,-0.0797
4584,-0.0797
4585,-0.0398
4586,-0.0199
4587,0.0000
4588,-0.0199
4589,-0.0398
4590,0.1195
4591,0.1195
4592,0.0000
4593,-0.0996
4594,-0.1594
4595,-0.1195
4596,-0.1395
4597,0.0398
4598,0.0199
4599,-0.0199
4600,0.0398
4601,0.1195
4602,0.0398
4603,-0.1395
4604,-0.1395
4605,-0.0398
4606,-0.0797
4607,-0.0398
4608,0.0398
4609,0.0598
4610,0.0000
4611,-0.0199
4612,0.1195
4613,0.0996
4614,0.0598
4615,-0.0199
4616,-0.0398
4617,0.0000
4618,-0.0996
4619,-0.1992
4620,-0.1195
4621,0.0598
4622,0.2988
4623,0.3785
4624,0.1793
4625,0.0598
4626,0.0398
4627,0.0996
4628,0.0598
4629,0.0199
4630,-0.0199
4631,-0.0598
4632,0.0797
4633,0.5180
4634,0.4781
4635,0.2988
4636,0.0996
4637,-0.0398
4638,-0.1992
4639,-0.2191
4640,-0.1594
4641,-0.1195
4642,-0.1395
4643,-0.2789
4644,-0.2789
4645,-0.1793
4646,-0.0398
4647,0.0398
4648,0.1195
4649,0.2590
4650,0.2191
4651,0.0996
4652,0.0398
4653,0.0199
4654,0.0199
4655,-0.2191
4656,-0.3387
4657,-0.2789
4658,-0.1195
4659,0.0398
4660,0.1594
4661,0.0797
4662,0.0000
4663,-0.0996
4664,0.0398
4665,0.0996
4666,0.0598
4667,-0.0199
4668,0.0398
4669,0.0598
4670,0.1195
4671,0.1793
4672,0.1195
4673,0.1992
4674,0.0398
4675,0.0598
4676,-0.0996
4677,-0.1594
4678,-0.1793
4679,-0.1793
4680,-0.1793
4681,-0.0996
4682,0.0000
4683,0.0000
4684,0.1195
4685,0.2191
4686,0.1395
4687,0.0398
4688,-0.1195
4689,-0.2988
4690,-0.3785
4691,-0.4582
4692,-0.3188
4693,-0.0398
4694,-0.0598
4695,0.0996
4696,0.1395
4697,0.0199
4698,-0.0199
4699,0.0598
4700,0.3586
4701,0.3188
4702,0.0598
4703,0.0000
4704,-0.1395
4705,-0.1395
4706,-0.1594
4707,-0.1793
4708,-0.2191
4709,-0.2789
4710,-0.3586
4711,-0.2191
4712,-0.1195
4713,0.2789
4714,0.2391
4715,0.1395
4716,0.0996
4717,-0.0199
4718,-0.0797
4719,-0.0398
4720,-0.0199
4721,0.0000
4722,0.0398
4723,-0.0398
4724,-0.0996
4725,-0.0797
4726,-0.0199
4727,-0.0398
4728,0.0000
4729,-0.0996
4730,-0.1395
4731,-0.1195
4732,-0.1195
4733,-0.2191
4734,-0.0996
4735,-0.0199
4736,-0.0398
4737,-0.0996
4738,-0.0398
4739,-0.0398
4740,-0.0199
4741,-0.0199
4742,0.1395
4743,0.2191
4744,0.2191
4745,0.1195
4746,0.0398
4747,-0.0598
4748,-0.0797
4749,-0.1395
4750,-0.1992
4751,-0.1395
4752,-0.0996
4753,-0.1992
4754,-0.1195
4755,0.0000
4756,0.0797
4757,-0.2191
4758,-0.3785
4759,-0.2988
4760,-0.2391
4761,-0.1992
4762,-0.0797
4763,0.1594
4764,0.2789
4765,0.3387
4766,0.3984
4767,0.1793
4768,0.0199
4769,0.0398
4770,0.0598
4771,0.0797
4772,0.2191
4773,0.2391
4774,0.2789
4775,0.0996
4776,-0.1195
4777,-0.1793
4778,-0.1992
4779,-0.1395
4780,-0.0598
4781,0.0000
4782,0.0000
4783,0.1195
4784,0.1594
4785,0.3188
4786,0.2988
4787,0.2191
4788,0.0996
4789,0.0598
4790,-0.0398
4791,0.2988
4792,0.3785
4793,0.0199
4794,-0.0398
4795,-0.1992
4796,-0.4184
4797,-0.6176
4798,-0.5578
4799,-0.3387
4800,0.1395
4801,0.4980
4802,0.5977
4803,0.5379
4804,0.5379
4805,0.3984
4806,0.3387
4807,0.2988
4808,0.2191
4809,0.1992
4810,0.1395
4811,0.0199
4812,-0.0398
4813,-0.0398
4814,-0.0996
4815,-0.0996
4816,-0.1395
4817,-0.0797
4818,-0.1594
4819,-0.0797
4820,-0.0398
4821,-0.1195
4822,-0.1195
4823,-0.1195
4824,0.0000
4825,0.1793
4826,0.1594
4827,0.0598
4828,-0.0199
4829,0.0996
4830,0.0598
4831,0.0398
4832,0.1395
4833,0.1395
4834,0.2590
4835,0.0797
4836,0.0797
4837,0.1395
4838,0.0996
4839,0.0996
4840,0.0797
4841,0.2191
4842,0.0199
4843,-0.1195
4844,-0.0199
4845,0.2191
4846,0.1793
4847,0.0797
4848,-0.1195
4849,-0.1594
4850,-0.2391
4851,-0.1992
4852,-0.0996
4853,-0.0996
4854,0.0000
4855,0.1594
4856,0.5180
4857,0.6176
4858,0.3586
4859,0.0996
4860,-0.0199
4861,-0.0598
4862,-0.0598
4863,-0.0797
4864,0.1195
4865,0.1594
4866,0.1594
4867,0.1594
4868,0.0598
4869,-0.0996
4870,-0.2191
4871,-0.2391
4872,-0.2789
4873,-0.0199
4874,0.0598
4875,0.0797
4876,-0.0199
4877,-0.1992
4878,-0.3387
4879,-0.3586
4880,-0.2191
4881,-0.0797
4882,0.0398
4883,0.0996
4884,0.0797
4885,0.0398
4886,0.0398
4887,-0.1195
4888,-0.1992
4889,-0.2590
4890,-0.1793
4891,0.0199
4892,0.0996
4893,0.1594
4894,0.0398
4895,-0.1195
4896,-0.0797
4897,-0.0996
4898,-0.0996
4899,-0.0398
4900,-0.2191
4901,-0.3387
4902,-0.2789
4903,-0.2191
4904,-0.1395
4905,0.0996
4906,0.1195
4907,0.0797
4908,0.0000
4909,-0.2391
4910,-0.4781
4911,-0.5180
4912,-0.1594
4913,-0.0199
4914,0.2789
4915,0.5180
4916,0.4781
4917,0.2590
4918,0.1195
4919,-0.0797
4920,-0.0199
4921,-0.0398
4922,-0.0199
4923,-0.0199
4924,0.0000
4925,0.0598
4926,0.0598
4927,0.0797
4928,0.0398
4929,0.0199
4930,-0.0398
4931,-0.0598
4932,-0.0398
4933,0.0598
4934,0.0996
4935,-0.1195
4936,-0.2590
4937,-0.2391
4938,-0.0996
4939,0.0000
4940,-0.1195
4941,-0.0199
4942,0.0996
4943,0.2590
4944,0.2789
4945,0.1594
4946,0.0398
4947,-0.0598
4948,-0.1594
4949,-0.1793
4950,-0.1594
4951,-0.2191
4952,-0.1992
4953,-0.3984
4954,-0.3188
4955,-0.2988
4956,-0.2988
4957,-0.2590
4958,-0.1395
4959,-0.0199
4960,0.0199
4961,0.0598
4962,-0.0199
4963,-0.2191
4964,-0.2590
4965,-0.0996
4966,-0.1594
4967,-0.1793
4968,-0.0996
4969,0.0199
4970,-0.0598
4971,-0.0996
4972,0.0199
4973,0.0598
4974,0.0797
4975,-0.0199
4976,0.0598
4977,0.1395
4978,0.1793
4979,0.2988
4980,0.1992
4981,0.0199
4982,-0.0797
4983,-0.0996
4984,-0.0199
4985,-0.0199
4986,0.0000
4987,0.0398
4988,0.0598
4989,0.1395
4990,0.0996
4991,-0.0797
4992,-0.1594
4993,-0.0996
4994,-0.1395
4995,-0.1195
4996,0.0199
4997,0.0199
4998,0.0000
4999,0.0199
5000,0.0000
5001,0.0398
5002,0.1395
5003,0.1793
5004,0.1195
5005,0.1195
5006,0.1395
5007,0.1793
5008,0.1594
5009,0.0398
5010,0.0598
5011,0.0797
5012,0.0598
5013,0.0199
5014,0.0797
5015,0.1395
5016,0.1395
5017,0.0797
5018,-0.0598
5019,-0.0598
5020,-0.1992
5021,-0.0598
5022,0.0797
5023,0.1793
5024,0.2789
5025,0.1395
5026,-0.0398
5027,-0.0797
5028,0.0199
5029,0.3984
5030,0.5379
5031,0.5180
5032,0.5578
5033,0.5578
5034,0.3387
5035,0.0996
5036,-0.1992
5037,-0.3387
5038,-0.2191
5039,-0.0398
5040,0.0398
5041,-0.0199
5042,-0.1195
5043,-0.1594
5044,-0.1793
5045,-0.1992
5046,-0.0398
5047,0.2391
5048,0.2590
5049,0.1992
5050,-0.0996
5051,-0.2391
5052,-0.4383
5053,-0.5379
5054,-0.5977
5055,-0.4980
5056,-0.3785
5057,-0.2391
5058,-0.1195
5059,-0.2191
5060,-0.0996
5061,-0.0797
5062,-0.0598
5063,0.0797
5064,0.1594
5065,0.0797
5066,-0.0199
5067,-0.0598
5068,-0.0797
5069,-0.0598
5070,-0.0797
5071,-0.1395
5072,-0.0797
5073,0.0000
5074,0.0000
5075,-0.0996
5076,-0.2988
5077,-0.2988
5078,-0.2391
5079,-0.0797
5080,0.0797
5081,0.1195
5082,0.1195
5083,0.0199
5084,0.0000
5085,0.0398
5086,0.0398
5087,0.0000
5088,-0.0199
5089,-0.0797
5090,-0.0797
5091,-0.1195
5092,-0.0199
5093,0.1793
5094,0.0199
5095,-0.2590
5096,-0.4383
5097,-0.3586
5098,-0.2789
5099,-0.1195
5100,-0.0996
5101,-0.0598
5102,0.0398
5103,0.1395
5104,0.2391
5105,0.1594
5106,0.2590
5107,0.3188
5108,0.2391
5109,0.3188
5110,0.2789
5111,0.3387
5112,0.2789
5113,0.1793
5114,0.1395
5115,0.0996
5116,-0.0199
5117,0.0598
5118,0.0797
5119,0.0797
5120,-0.0598
5121,-0.3188
5122,-0.3785
5123,-0.4582
5124,-0.4184
5125,-0.0996
5126,0.1793
5127,0.3586
5128,0.3785
5129,0.2590
5130,0.1594
5131,0.1195
5132,0.1992
5133,0.2789
5134,0.3387
5135,0.0996
5136,-0.0797
5137,-0.0598
5138,-0.0199
5139,0.0000
5140,-0.1793
5141,-0.2391
5142,-0.1594
5143,-0.0199
5144,-0.0398
5145,0.0199
5146,0.0199
5147,-0.0398
5148,-0.0199
5149,-0.0797
5150,-0.1992
5151,-0.2191
5152,-0.1793
5153,-0.1195
5154,0.0000
5155,0.0996
5156,0.0996
5157,0.0996
5158,0.0797
5159,0.1195
5160,0.1195
5161,0.0199
5162,-0.0996
5163,-0.2590
5164,-0.2789
5165,-0.2590
5166,-0.1594
5167,-0.1395
5168,-0.0996
5169,-0.1594
5170,-0.1395
5171,-0.1594
5172,-0.1594
5173,-0.1395
5174,-0.1195
5175,-0.1594
5176,-0.1992
5177,-0.2191
5178,0.0000
5179,0.1992
5180,-0.0199
5181,-0.1195
5182,0.0000
5183,0.1992
5184,0.1992
5185,0.1195
5186,0.0000
5187,0.0000
5188,-0.0398
5189,-0.0199
5190,-0.0398
5191,-0.0199
5192,-0.0398
5193,-0.0398
5194,0.1195
5195,0.2191
5196,0.4383
5197,0.3785
5198,0.1992
5199,-0.0398
5200,-0.1594
5201,-0.2988
5202,-0.2391
5203,-0.1992
5204,-0.0797
5205,0.0199
5206,0.0000
5207,-0.0797
5208,-0.1395
5209,-0.0598
5210,-0.0996
5211,-0.0996
5212,0.0598
5213,0.1594
5214,0.3188
5215,0.4383
5216,0.3188
5217,0.3188
5218,0.2789
5219,0.1195
5220,0.0398
5221,0.0000
5222,0.0598
5223,0.0598
5224,0.1992
5225,0.3387
5226,0.3188
5227,0.3188
5228,0.2590
5229,0.3785
5230,0.3984
5231,0.1793
5232,0.0598
5233,0.0000
5234,-0.0797
5235,-0.1992
5236,-0.1793
5237,-0.1195
5238,0.0797
5239,0.1594
5240,0.2789
5241,0.1395
5242,0.1195
5243,0.3785
5244,0.4184
5245,0.2789
5246,0.1195
5247,-0.0398
5248,-0.0398
5249,-0.0199
5250,-0.1594
5251,-0.1594
5252,-0.0797
5253,0.0000
5254,0.0398
5255,0.0398
5256,-0.0598
5257,0.1395
5258,0.1793
5259,0.0398
5260,0.0000
5261,-0.0996
5262,-0.2191
5263,-0.0996
5264,-0.0199
5265,0.0797
5266,0.0598
5267,0.1395
5268,0.1395
5269,0.0996
5270,-0.1594
5271,-0.4184
5272,-0.3586
5273,-0.2590
5274,-0.2391
5275,-0.2391
5276,-0.2988
5277,-0.2590
5278,-0.1195
5279,0.1594
5280,0.2391
5281,0.2789
5282,0.2988
5283,0.3387
5284,0.1793
5285,0.0598
5286,0.1195
5287,0.0598
5288,-0.0199
5289,-0.0797
5290,-0.0398
5291,0.0398
5292,0.0199
5293,-0.1395
5294,-0.0199
5295,0.1594
5296,0.1195
5297,-0.0199
5298,-0.1195
5299,-0.2191
5300,-0.2988
5301,-0.2590
5302,-0.0797
5303,0.1395
5304,0.3188
5305,0.3188
5306,0.1395
5307,0.0598
5308,0.0996
5309,0.0996
5310,0.0199
5311,-0.0598
5312,-0.0996
5313,-0.0996
5314,-0.0797
5315,-0.1195
5316,-0.1992
5317,-0.2789
5318,-0.1395
5319,-0.0598
5320,0.0199
5321,0.0000
5322,-0.0199
5323,-0.0598
5324,-0.0797
5325,0.0199
5326,0.2391
5327,0.2391
5328,0.0996
5329,0.0398
5330,-0.0398
5331,-0.0199
5332,0.0199
5333,0.0797
5334,0.2590
5335,0.2789
5336,0.2191
5337,0.0199
5338,-0.2590
5339,-0.3785
5340,-0.3387
5341,-0.3785
5342,-0.4383
5343,-0.4980
5344,-0.3387
5345,-0.3586
5346,-0.1992
5347,-0.0598
5348,0.0000
5349,0.1395
5350,0.2391
5351,0.3188
5352,0.5578
5353,0.2590
5354,0.0598
5355,0.0199
5356,-0.1395
5357,-0.1992
5358,-0.1395
5359,-0.0398
5360,0.0199
5361,0.1395
5362,0.1793
5363,0.0996
5364,0.1395
5365,0.0996
5366,0.0398
5367,0.0598
5368,0.0000
5369,-0.0598
5370,-0.0199
5371,-0.0398
5372,-0.0598
5373,0.0000
5374,-0.0598
5375,0.0797
5376,0.1395
5377,0.0996
5378,0.1195
5379,0.1992
5380,0.0996
5381,-0.0598
5382,-0.1793
5383,-0.2789
5384,-0.2191
5385,-0.1395
5386,-0.0199
5387,0.1395
5388,-0.0199
5389,-0.0797
5390,-0.1395
5391,-0.1594
5392,-0.0199
5393,0.0398
5394,0.0598
5395,0.0199
5396,0.0199
5397,0.0598
5398,0.2391
5399,0.2191
5400,0.1594
5401,-0.0199
5402,0.0000
5403,0.0797
5404,0.0797
5405,0.0199
5406,-0.1793
5407,-0.1395
5408,-0.1195
5409,-0.1195
5410,-0.1195
5411,0.0199
5412,0.0996
5413,0.1195
5414,0.1793
5415,0.0797
5416,-0.0199
5417,0.0199
5418,-0.0199
5419,-0.1793
5420,-0.1793
5421,-0.2191
5422,-0.1793
5423,-0.1594
5424,-0.0398
5425,-0.0598
5426,-0.0398
5427,-0.0797
5428,-0.0996
5429,-0.0797
5430,-0.0199
5431,0.0598
5432,-0.0598
5433,-0.2191
5434,-0.1594
5435,-0.0797
5436,-0.0598
5437,0.1195
5438,0.2391
5439,0.3984
5440,0.4184
5441,0.3387
5442,0.1195
5443,-0.0199
5444,-0.2789
5445,-0.2988
5446,-0.2590
5447,-0.1992
5448,-0.1395
5449,-0.0797
5450,-0.0199
5451,-0.0797
5452,0.0000
5453,0.0199
5454,-0.0996
5455,-0.1992
5456,-0.0797
5457,-0.1395
5458,-0.2988
5459,-0.2590
5460,-0.1594
5461,-0.0398
5462,0.0598
5463,0.0000
5464,0.0398
5465,0.1395
5466,0.0598
5467,0.0996
5468,0.1195
5469,0.0398
5470,0.0797
5471,-0.0199
5472,-0.0398
5473,-0.0996
5474,-0.1594
5475,-0.1793
5476,-0.1992
5477,-0.1992
5478,-0.1594
5479,-0.2391
5480,-0.1195
5481,-0.2191
5482,-0.1594
5483,-0.1195
5484,-0.0996
5485,-0.0398
5486,0.2191
5487,0.2590
5488,0.0598
5489,0.0398
5490,0.1195
5491,0.0398
5492,0.0996
5493,0.0996
5494,0.0598
5495,0.0598
5496,0.0199
5497,0.0000
5498,0.0398
5499,0.0996
5500,0.2191
5501,0.0996
5502,-0.0199
5503,-0.1793
5504,-0.1395
5505,-0.1195
5506,-0.1395
5507,-0.1195
5508,0.0398
5509,0.0797
5510,0.0000
5511,-0.1395
5512,-0.2988
5513,-0.3586
5514,-0.3188
5515,-0.2988
5516,-0.2988
5517,-0.1395
5518,0.0199
5519,0.0797
5520,0.1594
5521,0.0996
5522,-0.0398
5523,-0.0398
5524,-0.2191
5525,-0.2988
5526,-0.1594
5527,-0.0199
5528,0.1195
5529,0.3586
5530,0.3188
5531,0.2590
5532,0.2590
5533,0.2191
5534,0.1793
5535,0.0398
5536,0.0000
5537,0.0797
5538,0.0996
5539,0.0797
5540,0.0797
5541,0.0797
5542,0.0598
5543,0.0398
5544,0.0398
5545,0.1395
5546,0.1793
5547,0.1395
5548,-0.0797
5549,-0.1992
5550,-0.3586
5551,-0.3785
5552,-0.2789
5553,-0.2391
5554,-0.1395
5555,0.0598
5556,0.2391
5557,0.3586
5558,0.3586
5559,0.2191
5560,0.1594
5561,0.1992
5562,0.2988
5563,0.2590
5564,0.0199
5565,0.1594
5566,-0.0199
5567,-0.2191
5568,-0.3785
5569,-0.4383
5570,-0.4781
5571,-0.3984
5572,-0.1992
5573,-0.3387
5574,-0.3785
5575,-0.1793
5576,-0.0598
5577,0.0598
5578,0.1594
5579,0.2590
5580,0.3785
5581,0.1992
5582,0.1594
5583,0.2191
5584,0.1395
5585,0.0598
5586,-0.0398
5587,0.0000
5588,-0.0398
5589,-0.0398
5590,-0.1594
5591,-0.1594
5592,-0.1594
5593,-0.0996
5594,-0.0996
5595,-0.1195
5596,-0.1195
5597,0.0000
5598,0.0598
5599,0.0996
5600,0.0797
5601,0.0996
5602,0.0797
5603,0.0598
5604,-0.0598
5605,-0.2191
5606,-0.1195
5607,0.0398
5608,0.2191
5609,0.1594
5610,0.0398
5611,0.0000
5612,0.0996
5613,0.1594
5614,0.1195
5615,0.0199
5616,-0.0199
5617,-0.2590
5618,-0.2191
5619,-0.0996
5620,-0.0398
5621,0.0996
5622,0.0996
5623,0.0199
5624,-0.0398
5625,0.1195
5626,0.1594
5627,0.2391
5628,0.1992
5629,0.1992
5630,0.1793
5631,0.0996
5632,0.2191
5633,0.4383
5634,0.2988
5635,-0.0398
5636,-0.1793
5637,-0.2789
5638,-0.2191
5639,-0.1395
5640,-0.0797
5641,0.0598
5642,0.1395
5643,0.0797
5644,0.0598
5645,0.0000
5646,-0.0398
5647,0.0598
5648,0.1594
5649,-0.0398
5650,-0.0797
5651,0.0797
5652,0.2789
5653,0.3785
5654,0.2590
5655,0.1195
5656,-0.0199
5657,0.0000
5658,0.0398
5659,0.1395
5660,0.0598
5661,0.1195
5662,0.1992
5663,0.2590
5664,0.1594
5665,0.1395
5666,0.0000
5667,0.0000
5668,0.0000
5669,0.0797
5670,0.0199
5671,-0.0398
5672,-0.0996
5673,-0.0199
5674,-0.0398
5675,-0.0199
5676,-0.0797
5677,-0.0598
5678,0.0199
5679,0.1594
5680,0.2191
5681,0.0598
5682,0.0199
5683,-0.0199
5684,-0.0797
5685,-0.1195
5686,-0.1195
5687,-0.0996
5688,-0.1395
5689,-0.0598
5690,-0.0598
5691,-0.0199
5692,-0.0797
5693,-0.1594
5694,-0.1594
5695,-0.1793
5696,-0.1992
5697,-0.2789
5698,-0.2789
5699,-0.2988
5700,-0.4582
5701,-0.4184
5702,-0.3387
5703,-0.1395
5704,0.0398
5705,0.0996
5706,0.0598
5707,-0.0797
5708,-0.0199
5709,0.0398
5710,-0.1594
5711,-0.2988
5712,-0.3586
5713,-0.2789
5714,-0.1594
5715,-0.0598
5716,0.1594
5717,0.2590
5718,0.2789
5719,0.2191
5720,0.0797
5721,-0.0398
5722,-0.0996
5723,-0.0398
5724,0.0398
5725,0.1594
5726,0.1395
5727,-0.0598
5728,-0.2391
5729,-0.3586
5730,-0.2988
5731,-0.2789
5732,-0.0996
5733,0.0199
5734,0.0598
5735,-0.0199
5736,-0.0996
5737,-0.1594
5738,-0.1793
5739,-0.1992
5740,0.0000
5741,0.0000
5742,0.0598
5743,0.0996
5744,0.1793
5745,0.1992
5746,0.1793
5747,0.1395
5748,0.1195
5749,0.1594
5750,0.1195
5751,-0.0199
5752,-0.0797
5753,0.0199
5754,0.1395
5755,0.3188
5756,0.3188
5757,0.1793
5758,0.0199
5759,-0.1793
5760,-0.1793
5761,-0.0598
5762,-0.1395
5763,-0.2191
5764,-0.1793
5765,-0.1395
5766,-0.0398
5767,-0.0199
5768,0.0398
5769,0.1594
5770,0.1195
5771,0.1395
5772,0.1195
5773,0.1395
5774,0.0000
5775,-0.1594
5776,-0.2988
5777,-0.2988
5778,-0.3785
5779,-0.3586
5780,-0.2988
5781,-0.3785
5782,-0.5379
5783,-0.5578
5784,-0.4184
5785,-0.2789
5786,-0.2191
5787,-0.0398
5788,0.2391
5789,0.0797
5790,0.0199
5791,-0.0398
5792,0.0398
5793,0.0000
5794,0.0000
5795,-0.0199
5796,-0.0199
5797,0.0996
5798,0.1395
5799,0.1195
5800,0.0398
5801,-0.2191
5802,-0.3188
5803,-0.2988
5804,-0.1594
5805,0.0398
5806,0.1395
5807,0.0996
5808,0.0199
5809,-0.0199
5810,0.0199
5811,0.0598
5812,0.0996
5813,0.0598
5814,0.0398
5815,0.1195
5816,0.1793
5817,0.1992
5818,0.0996
5819,0.0598
5820,-0.1594
5821,-0.3785
5822,-0.4184
5823,-0.4582
5824,-0.4781
5825,-0.2789
5826,-0.2191
5827,-0.1594
5828,-0.0199
5829,0.0598
5830,0.3188
5831,0.2391
5832,0.0598
5833,0.0797
5834,0.1195
5835,0.2191
5836,0.2789
5837,0.2789
5838,0.1793
5839,0.0598
5840,-0.1793
5841,-0.3586
5842,-0.3586
5843,-0.1195
5844,0.2988
5845,0.1395
5846,-0.0598
5847,-0.1594
5848,-0.1195
5849,-0.0598
5850,0.1395
5851,0.0797
5852,-0.0797
5853,0.2191
5854,0.2789
5855,0.1793
5856,0.1594
5857,0.2590
5858,0.2590
5859,0.1594
5860,0.0000
5861,0.0398
5862,0.0398
5863,-0.1195
5864,-0.1395
5865,-0.0199
5866,0.0797
5867,0.1395
5868,0.0598
5869,0.0000
5870,-0.0797
5871,-0.1594
5872,-0.1594
5873,-0.0797
5874,-0.0598
5875,-0.1195
5876,-0.1992
5877,-0.3387
5878,-0.5777
5879,-0.5180
5880,-0.3984
5881,-0.0797
5882,0.2988
5883,0.3387
5884,0.2590
5885,0.2191
5886,0.1195
5887,0.2191
5888,0.0398
5889,-0.0598
5890,-0.1395
5891,-0.0996
5892,-0.0996
5893,-0.0797
5894,-0.0996
5895,-0.1195
5896,-0.1395
5897,-0.0996
5898,-0.1395
5899,-0.1195
5900,-0.1195
5901,-0.1594
5902,-0.1594
5903,-0.2191
5904,-0.1793
5905,-0.1793
5906,-0.2391
5907,-0.2191
5908,-0.1594
5909,-0.0199
5910,0.0797
5911,0.0199
5912,0.1195
5913,0.0598
5914,0.0199
5915,-0.0199
5916,-0.0598
5917,-0.0996
5918,-0.0797
5919,-0.0398
5920,0.0000
5921,0.1793
5922,0.3785
5923,0.2789
5924,0.1395
5925,-0.1395
5926,-0.2191
5927,-0.2789
5928,-0.1594
5929,-0.1594
5930,-0.0398
5931,0.1195
5932,0.1793
5933,0.3188
5934,0.2988
5935,0.1594
5936,0.0398
5937,0.1195
5938,0.2191
5939,0.1395
5940,0.0598
5941,-0.1992
5942,-0.1793
5943,-0.0797
5944,0.1195
5945,0.2191
5946,0.1395
5947,0.1195
5948,0.0199
5949,-0.1793
5950,-0.2590
5951,-0.1594
5952,-0.1195
5953,-0.0797
5954,-0.1793
5955,-0.1992
5956,-0.2590
5957,-0.0797
5958,-0.0199
5959,-0.0398
5960,0.0000
5961,0.0598
5962,0.0398
5963,0.0000
5964,-0.0797
5965,-0.0598
5966,0.0398
5967,0.0199
5968,-0.0199
5969,-0.0797
5970,-0.1992
5971,-0.2391
5972,-0.1395
5973,-0.1395
5974,-0.1793
5975,-0.0996
5976,-0.0598
5977,-0.0398
5978,-0.0199
5979,0.0398
5980,-0.0598
5981,-0.1992
5982,-0.2191
5983,-0.1992
5984,-0.0996
5985,-0.2191
5986,-0.4980
5987,-0.4383
5988,-0.2789
5989,-0.2391
5990,-0.0199
5991,0.1195
5992,0.0598
5993,0.2391
5994,0.3387
5995,0.2391
5996,0.0996
5997,0.0996
5998,0.0797
5999,-0.0398
6000,-0.0797
6001,-0.0398
6002,-0.0199
6003,-0.0797
6004,-0.0398
6005,-0.0797
6006,0.0398
6007,-0.0199
6008,-0.0598
6009,-0.1195
6010,-0.0996
6011,-0.1195
6012,-0.1195
6013,-0.1992
6014,-0.3586
6015,-0.3586
6016,-0.4781
6017,-0.3586
6018,-0.1793
6019,0.2191
6020,0.2391
6021,0.2391
6022,0.0996
6023,-0.0398
6024,-0.1395
6025,-0.1395
6026,-0.2789
6027,-0.1793
6028,-0.1195
6029,0.0398
6030,0.1395
6031,0.1793
6032,0.1195
6033,0.0797
6034,-0.0797
6035,-0.1992
6036,-0.0996
6037,0.0598
6038,0.2391
6039,0.3188
6040,0.1992
6041,0.0797
6042,-0.0398
6043,-0.0398
6044,0.0398
6045,0.0000
6046,-0.0398
6047,-0.0598
6048,-0.0598
6049,-0.0199
6050,0.0996
6051,0.1992
6052,0.1992
6053,0.0199
6054,-0.0996
6055,-0.0996
6056,-0.1594
6057,-0.0398
6058,-0.0398
6059,0.0398
6060,0.1992
6061,0.2590
6062,0.2191
6063,0.1793
6064,0.1195
6065,0.0199
6066,-0.0598
6067,0.0398
6068,-0.0199
6069,-0.0398
6070,-0.0996
6071,-0.0797
6072,0.0797
6073,0.1992
6074,0.2789
6075,0.2391
6076,0.1395
6077,0.2391
6078,0.1594
6079,0.0797
6080,0.0797
6081,0.0598
6082,0.0000
6083,-0.1992
6084,-0.3387
6085,-0.4184
6086,-0.2789
6087,-0.0996
6088,0.1395
6089,0.3188
6090,0.3188
6091,0.2590
6092,0.2988
6093,0.1395
6094,0.1594
6095,0.0398
6096,0.0000
6097,-0.0199
6098,0.0000
6099,-0.0199
6100,0.0199
6101,-0.1395
6102,-0.1395
6103,-0.1395
6104,-0.0398
6105,0.0000
6106,0.0598
6107,0.1992
6108,0.1793
6109,-0.0797
6110,-0.2988
6111,-0.3785
6112,-0.2789
6113,-0.1793
6114,-0.0598
6115,0.0598
6116,-0.0199
6117,0.0797
6118,0.1992
6119,0.1195
6120,-0.0797
6121,-0.1793
6122,-0.1594
6123,-0.1793
6124,-0.1195
6125,-0.0199
6126,0.0797
6127,0.1594
6128,0.0398
6129,0.1395
6130,0.0398
6131,-0.0199
6132,0.0598
6133,0.1195
6134,0.2789
6135,0.2590
6136,0.1594
6137,0.1395
6138,0.1195
6139,0.1594
6140,0.1195
6141,0.0797
6142,0.0996
6143,0.1195
6144,-0.0797
6145,-0.3984
6146,-0.4781
6147,-0.5180
6148,-0.3387
6149,-0.0797
6150,0.1594
6151,0.4383
6152,0.5977
6153,0.4582
6154,0.2191
6155,0.0797
6156,-0.0398
6157,-0.0398
6158,-0.0598
6159,-0.0797
6160,-0.0797
6161,-0.1195
6162,-0.1195
6163,-0.1992
6164,-0.1195
6165,-0.1395
6166,-0.1793
6167,-0.1793
6168,-0.2590
6169,-0.2988
6170,-0.2988
6171,-0.2391
6172,-0.2191
6173,-0.1594
6174,-0.1992
6175,-0.0199
6176,-0.0398
6177,-0.0398
6178,-0.0398
6179,-0.1395
6180,-0.2789
6181,-0.2789
6182,-0.2988
6183,-0.1594
6184,-0.1395
6185,-0.0598
6186,0.0199
6187,0.1793
6188,0.0797
6189,0.0398
6190,0.0598
6191,0.1395
6192,0.0398
6193,0.0996
6194,0.1793
6195,0.1195
6196,0.1195
6197,0.0797
6198,0.0797
6199,0.0797
6200,0.2590
6201,0.3586
6202,0.3984
6203,0.2590
6204,0.1195
6205,0.0797
6206,0.0398
6207,0.0199
6208,-0.0398
6209,0.0000
6210,0.0797
6211,0.0398
6212,0.0598
6213,-0.0199
6214,-0.0398
6215,0.0000
6216,-0.0598
6217,-0.0797
6218,-0.0797
6219,-0.0598
6220,-0.0996
6221,-0.0996
6222,-0.0598
6223,0.0199
6224,-0.0199
6225,-0.0797
6226,-0.0996
6227,-0.0797
6228,-0.1395
6229,-0.1395
6230,-0.1195
6231,-0.0996
6232,0.0398
6233,0.0598
6234,0.0000
6235,-0.0398
6236,0.0598
6237,0.0398
6238,-0.0398
6239,-0.1195
6240,-0.1395
6241,-0.0797
6242,-0.0199
6243,0.0797
6244,0.1195
6245,0.1992
6246,0.2391
6247,0.1195
6248,-0.0199
6249,-0.3188
6250,-0.3586
6251,-0.2191
6252,-0.0398
6253,0.1195
6254,0.0398
6255,-0.1594
6256,-0.1594
6257,-0.1395
6258,0.0598
6259,0.0398
6260,0.0000
6261,0.0797
6262,0.0398
6263,0.0398
6264,0.0199
6265,-0.0598
6266,0.0797
6267,-0.0199
6268,0.0000
6269,0.1594
6270,0.2590
6271,0.1594
6272,-0.0797
6273,-0.2191
6274,-0.0598
6275,-0.1395
6276,-0.1594
6277,-0.1594
6278,-0.0996
6279,0.1793
6280,0.3387
6281,0.3785
6282,0.3586
6283,0.4184
6284,0.3188
6285,0.2191
6286,0.0797
6287,0.0996
6288,0.1195
6289,0.1395
6290,0.2191
6291,0.2191
6292,0.1992
6293,0.0398
6294,-0.0598
6295,0.0000
6296,0.1594
6297,0.2590
6298,0.3188
6299,0.1594
6300,0.0797
6301,0.0797
6302,0.0598
6303,0.1992
6304,0.1992
6305,0.1195
6306,0.0598
6307,0.0000
6308,-0.1992
6309,-0.2391
6310,-0.2789
6311,-0.2988
6312,-0.2191
6313,-0.3984
6314,-0.2391
6315,0.0797
6316,0.2789
6317,0.2789
6318,0.2590
6319,-0.0199
6320,-0.0797
6321,0.0199
6322,-0.0199
6323,-0.1195
6324,-0.1992
6325,-0.2590
6326,-0.2789
6327,-0.2391
6328,-0.1594
6329,-0.0199
6330,0.0598
6331,0.1195
6332,0.1195
6333,0.0598
6334,0.0199
6335,-0.1793
6336,-0.3984
6337,-0.4980
6338,-0.4781
6339,-0.4781
6340,-0.3984
6341,-0.2988
6342,-0.0996
6343,0.0797
6344,0.2391
6345,0.2789
6346,0.1992
6347,0.0398
6348,0.0398
6349,0.1992
6350,0.3785
6351,0.4383
6352,0.0996
6353,-0.2191
6354,-0.4383
6355,-0.3586
6356,-0.1195
6357,0.0598
6358,0.1793
6359,0.1594
6360,-0.0199
6361,-0.0199
6362,-0.0598
6363,-0.1395
6364,-0.0398
6365,-0.0996
6366,-0.0398
6367,-0.0398
6368,-0.0398
6369,-0.0797
6370,0.2391
6371,0.4184
6372,0.1395
6373,-0.0398
6374,-0.2191
6375,-0.4184
6376,-0.4980
6377,-0.3188
6378,-0.2191
6379,0.0797
6380,0.2191
6381,-0.0199
6382,-0.0598
6383,-0.1195
6384,0.0000
6385,-0.0598
6386,-0.1793
6387,-0.1594
6388,-0.0398
6389,0.2590
6390,0.2988
6391,0.1594
6392,0.1594
6393,0.0598
6394,0.0000
6395,0.0199
6396,-0.0598
6397,0.0398
6398,-0.0398
6399,-0.0398
6400,-0.0996
6401,-0.1195
6402,-0.1195
6403,-0.0797
6404,0.0398
6405,0.0797
6406,0.1195
6407,-0.0996
6408,-0.1793
6409,-0.1992
6410,-0.2590
6411,-0.2789
6412,-0.1992
6413,-0.1793
6414,-0.0797
6415,-0.0199
6416,0.0000
6417,0.0797
6418,0.2191
6419,0.0598
6420,-0.2391
6421,-0.4582
6422,-0.4980
6423,-0.4383
6424,-0.2988
6425,-0.0797
6426,0.1395
6427,0.3785
6428,0.3188
6429,0.2391
6430,0.1395
6431,0.0996
6432,0.1793
6433,0.1395
6434,0.0996
6435,0.1395
6436,0.0797
6437,0.0996
6438,0.0797
6439,0.0000
6440,0.0199
6441,0.0797
6442,0.0996
6443,0.0996
6444,0.0000
6445,0.0000
6446,-0.1793
6447,-0.1992
6448,-0.1594
6449,-0.1594
6450,-0.1992
6451,-0.1395
6452,-0.0398
6453,0.0996
6454,0.2391
6455,0.2590
6456,0.1793
6457,0.0598
6458,0.0996
6459,0.0797
6460,0.0797
6461,0.0398
6462,0.1195
6463,0.0996
6464,0.0000
6465,0.0000
6466,-0.0398
6467,-0.0996
6468,-0.0797
6469,-0.0398
6470,0.0000
6471,0.0598
6472,0.1992
6473,0.2391
6474,0.0996
6475,0.0199
6476,0.0598
6477,-0.0598
6478,-0.1793
6479,-0.0398
6480,-0.0199
6481,-0.0398
6482,0.1195
6483,0.1195
6484,0.1395
6485,0.0996
6486,0.0797
6487,0.0797
6488,0.1195
6489,0.0598
6490,0.0199
6491,-0.1793
6492,-0.2590
6493,-0.4781
6494,-0.4383
6495,-0.3188
6496,-0.1395
6497,0.0000
6498,0.0797
6499,-0.0797
6500,-0.3586
6501,-0.5578
6502,-0.5379
6503,-0.3188
6504,-0.0598
6505,0.1594
6506,0.0398
6507,0.0797
6508,0.0398
6509,0.0398
6510,-0.1793
6511,-0.2191
6512,-0.0797
6513,-0.1395
6514,-0.1992
6515,-0.1195
6516,-0.1594
6517,-0.0996
6518,0.0199
6519,0.0996
6520,0.0199
6521,0.0000
6522,-0.1793
6523,-0.3785
6524,-0.3785
6525,-0.3984
6526,-0.2391
6527,-0.0398
6528,0.1793
6529,0.2789
6530,0.2391
6531,0.1793
6532,0.0797
6533,0.0598
6534,0.0598
6535,0.0797
6536,0.0199
6537,0.0199
6538,0.0000
6539,-0.0199
6540,0.0199
6541,0.0398
6542,0.0996
6543,0.0996
6544,0.0797
6545,0.1395
6546,0.1195
6547,0.0199
6548,0.0398
6549,0.0996
6550,0.0598
6551,-0.0398
6552,0.0000
6553,-0.0797
6554,0.1594
6555,0.2191
6556,0.0797
6557,-0.1395
6558,-0.1594
6559,-0.1793
6560,-0.2391
6561,-0.2590
6562,-0.1793
6563,0.0996
6564,0.1793
6565,0.2590
6566,0.0797
6567,-0.0199
6568,0.0000
6569,0.0398
6570,0.0797
6571,0.1395
6572,0.1195
6573,-0.0199
6574,-0.0996
6575,-0.1594
6576,-0.1992
6577,-0.1195
6578,-0.0797
6579,-0.0598
6580,0.1195
6581,0.2590
6582,0.2988
6583,0.1793
6584,-0.0598
6585,-0.3188
6586,-0.2391
6587,-0.0598
6588,0.0398
6589,0.0996
6590,0.0598
6591,0.0398
6592,0.0598
6593,-0.0199
6594,0.0797
6595,0.0000
6596,-0.0797
6597,-0.0797
6598,0.1793
6599,0.2391
6600,0.0598
6601,-0.2590
6602,-0.4184
6603,-0.3387
6604,-0.2590
6605,-0.1992
6606,-0.1793
6607,-0.1395
6608,-0.1395
6609,-0.0996
6610,-0.0199
6611,0.2191
6612,0.2590
6613,0.1195
6614,-0.0199
6615,-0.1195
6616,-0.0797
6617,-0.0398
6618,-0.0398
6619,-0.0598
6620,-0.0996
6621,-0.1395
6622,-0.1594
6623,-0.0996
6624,-0.0398
6625,0.0398
6626,0.0199
6627,0.0398
6628,0.0199
6629,-0.0398
6630,-0.0598
6631,-0.2988
6632,-0.1793
6633,-0.0797
6634,0.0000
6635,0.1594
6636,0.1793
6637,0.1195
6638,-0.0199
6639,-0.0199
6640,0.0000
6641,-0.0598
6642,-0.0199
6643,0.1195
6644,0.1992
6645,0.2590
6646,0.2191
6647,0.4383
6648,0.6176
6649,0.4781
6650,0.0996
6651,-0.1793
6652,-0.3188
6653,-0.3188
6654,-0.2391
6655,-0.0598
6656,-0.0199
6657,0.0598
6658,0.0199
6659,-0.0797
6660,-0.0797
6661,0.0398
6662,0.1594
6663,0.1992
6664,0.0797
6665,-0.0598
6666,-0.1594
6667,-0.2789
6668,-0.3984
6669,-0.2988
6670,-0.1195
6671,0.0199
6672,0.2391
6673,0.1793
6674,0.1793
6675,0.1992
6676,0.1395
6677,0.0797
6678,0.1195
6679,0.1594
6680,0.0598
6681,0.0398
6682,0.0000
6683,-0.0398
6684,-0.2391
6685,-0.1195
6686,-0.0398
6687,-0.0199
6688,-0.0199
6689,0.0199
6690,-0.0996
6691,-0.2789
6692,-0.3586
6693,-0.3785
6694,-0.2590
6695,-0.1395
6696,-0.1992
6697,-0.0996
6698,0.0797
6699,0.4383
6700,0.2789
6701,0.1793
6702,0.1395
6703,0.1395
6704,-0.0398
6705,-0.1395
6706,-0.0996
6707,-0.1195
6708,-0.0598
6709,0.0398
6710,0.0199
6711,-0.0398
6712,-0.0996
6713,0.0199
6714,-0.0199
6715,0.0797
6716,0.1594
6717,0.2191
6718,0.1395
6719,0.2391
6720,0.2191
6721,0.0398
6722,0.0598
6723,-0.0199
6724,0.0000
6725,0.0598
6726,-0.0398
6727,-0.0797
6728,-0.0398
6729,0.0398
6730,-0.0199
6731,0.0000
6732,0.1395
6733,0.1195
6734,0.0598
6735,0.1395
6736,0.0996
6737,0.1195
6738,0.0996
6739,0.1395
6740,0.2391
6741,0.2191
6742,0.2988
6743,0.2590
6744,0.1594
6745,0.1793
6746,0.0996
6747,0.0598
6748,-0.1594
6749,-0.2191
6750,-0.1793
6751,-0.0398
6752,0.1793
6753,0.1793
6754,0.0797
6755,0.1395
6756,0.0598
6757,0.2391
6758,0.2590
6759,0.1992
6760,0.1395
6761,0.0598
6762,0.0598
6763,0.0000
6764,0.0199
6765,-0.0598
6766,-0.1992
6767,-0.0797
6768,0.0797
6769,-0.0398
6770,-0.1195
6771,0.0000
6772,0.1195
6773,0.0000
6774,0.0199
6775,-0.0398
6776,-0.2789
6777,-0.3785
6778,-0.3586
6779,-0.0398
6780,0.1594
6781,0.2988
6782,0.2191
6783,0.0199
6784,-0.0199
6785,-0.0398
6786,0.0598
6787,0.0797
6788,0.0598
6789,0.0199
6790,-0.0598
6791,-0.0398
6792,0.0598
6793,-0.1395
6794,-0.0797
6795,-0.1395
6796,-0.1395
6797,-0.0996
6798,0.0000
6799,0.1395
6800,0.2191
6801,0.2191
6802,0.2789
6803,0.1395
6804,0.0598
6805,-0.0398
6806,0.0797
6807,0.1992
6808,0.1594
6809,-0.0199
6810,-0.0398
6811,-0.1992
6812,-0.3387
6813,-0.3984
6814,-0.2391
6815,-0.0996
6816,-0.0199
6817,0.1195
6818,0.2789
6819,0.3387
6820,0.4383
6821,0.3586
6822,0.2988
6823,0.1793
6824,-0.0199
6825,-0.0996
6826,-0.2191
6827,-0.1395
6828,-0.0598
6829,-0.0797
6830,-0.1594
6831,-0.1195
6832,-0.0199
6833,0.0797
6834,0.2391
6835,0.1793
6836,0.1793
6837,0.0996
6838,0.0398
6839,0.0398
6840,0.0598
6841,0.0199
6842,-0.0398
6843,-0.1992
6844,-0.0797
6845,0.0000
6846,0.0000
6847,-0.1594
6848,-0.2590
6849,-0.3387
6850,-0.2988
6851,-0.2191
6852,-0.1395
6853,-0.2988
6854,-0.2590
6855,-0.1594
6856,-0.0996
6857,-0.0996
6858,-0.1195
6859,-0.0598
6860,0.0797
6861,0.1793
6862,0.3188
6863,0.1395
6864,0.0199
6865,-0.0598
6866,-0.0996
6867,-0.1594
6868,-0.1395
6869,-0.2391
6870,-0.2191
6871,-0.1594
6872,-0.0797
6873,0.0199
6874,-0.0199
6875,0.0000
6876,0.0000
6877,0.0398
6878,-0.0996
6879,-0.0598
6880,-0.0598
6881,-0.0598
6882,-0.1594
6883,-0.1992
6884,-0.1395
6885,0.0598
6886,0.3188
6887,0.4383
6888,0.3387
6889,0.2988
6890,0.1594
6891,0.0199
6892,-0.0598
6893,-0.0797
6894,-0.0996
6895,0.0000
6896,0.0598
6897,0.0598
6898,0.0797
6899,0.0797
6900,-0.2191
6901,-0.4781
6902,-0.4184
6903,-0.2590
6904,-0.1594
6905,0.0199
6906,0.1992
6907,0.4184
6908,0.3387
6909,0.0598
6910,-0.0398
6911,-0.0199
6912,0.0398
6913,0.0996
6914,0.0398
6915,0.0598
6916,0.0398
6917,-0.0199
6918,0.0398
6919,0.0996
6920,0.0199
6921,-0.0199
6922,0.0000
6923,0.0398
6924,0.0398
6925,-0.0199
6926,0.0000
6927,0.0797
6928,0.0996
6929,0.0398
6930,-0.0199
6931,-0.0199
6932,0.0199
6933,-0.0199
6934,-0.0598
6935,0.1395
6936,-0.0398
6937,-0.1594
6938,-0.2391
6939,-0.0797
6940,-0.0398
6941,-0.0199
6942,-0.0598
6943,-0.1395
6944,-0.1594
6945,-0.0797
6946,-0.0398
6947,0.0996
6948,0.1395
6949,0.2988
6950,0.3785
6951,0.2789
6952,0.2191
6953,0.2391
6954,0.1793
6955,0.0000
6956,-0.0996
6957,-0.2191
6958,-0.1594
6959,-0.0996
6960,-0.0797
6961,-0.0996
6962,-0.0797
6963,-0.0797
6964,-0.1395
6965,-0.0598
6966,-0.0398
6967,-0.0398
6968,0.0996
6969,0.0797
6970,-0.0199
6971,-0.0996
6972,-0.2191
6973,-0.2590
6974,-0.3586
6975,-0.4980
6976,-0.4184
6977,-0.1594
6978,0.1195
6979,0.3984
6980,0.3586
6981,0.2191
6982,0.1992
6983,0.0797
6984,0.0996
6985,0.0398
6986,-0.0797
6987,0.0000
6988,-0.0199
6989,-0.0996
6990,-0.1992
6991,-0.2988
6992,-0.2391
6993,-0.2789
6994,-0.1594
6995,-0.0996
6996,-0.0996
6997,-0.0598
6998,0.0398
6999,0.1195
7000,0.2191
7001,0.0996
7002,0.1195
7003,0.1594
7004,0.1395
7005,-0.0199
7006,-0.1195
7007,-0.1594
7008,-0.2590
7009,-0.5180
7010,-0.4383
7011,-0.2590
7012,-0.0398
7013,-0.0199
7014,-0.0598
7015,0.0000
7016,0.0598
7017,0.1195
7018,0.2391
7019,0.4582
7020,0.3785
7021,0.2789
7022,0.1195
7023,0.0598
7024,0.0996
7025,0.0398
7026,-0.1195
7027,-0.1793
7028,-0.1395
7029,-0.1992
7030,-0.1793
7031,-0.1195
7032,-0.1395
7033,-0.1992
7034,-0.2391
7035,-0.2590
7036,0.0996
7037,0.0996
7038,0.0598
7039,-0.0398
7040,-0.0398
7041,-0.1195
7042,-0.0199
7043,-0.0797
7044,-0.0598
7045,-0.1195
7046,-0.3188
7047,-0.2988
7048,-0.1594
7049,-0.0199
7050,0.0199
7051,0.0199
7052,0.0398
7053,0.1195
7054,0.2191
7055,0.2191
7056,0.0797
7057,0.1195
7058,0.0996
7059,-0.0199
7060,-0.0398
7061,-0.0996
7062,-0.0996
7063,-0.1594
7064,-0.1594
7065,-0.1195
7066,-0.0199
7067,0.1195
7068,0.1195
7069,0.1992
7070,0.2590
7071,0.1793
7072,0.0598
7073,-0.1594
7074,-0.2191
7075,0.0996
7076,0.3984
7077,0.2789
7078,0.1395
7079,0.0598
7080,0.0996
7081,0.0996
7082,0.0598
7083,0.0598
7084,0.0000
7085,-0.0797
7086,-0.0398
7087,0.0598
7088,-0.0199
7089,-0.0797
7090,-0.0398
7091,-0.1195
7092,-0.0996
7093,-0.0199
7094,0.0000
7095,0.1793
7096,0.2191
7097,0.3188
7098,0.3586
7099,0.2988
7100,0.2789
7101,0.1395
7102,0.0996
7103,0.0598
7104,0.0199
7105,-0.0598
7106,0.0000
7107,0.0398
7108,-0.0598
7109,-0.2191
7110,-0.2391
7111,-0.2789
7112,-0.2988
7113,-0.3387
7114,-0.1395
7115,0.0199
7116,0.1793
7117,0.2789
7118,0.2590
7119,0.1793
7120,0.2590
7121,0.1594
7122,0.0996
7123,0.0398
7124,-0.0598
7125,0.1594
7126,0.3785
7127,0.3188
7128,-0.0598
7129,-0.2191
7130,-0.4383
7131,-0.3785
7132,-0.1793
7133,0.0398
7134,0.1395
7135,0.1195
7136,0.0598
7137,0.1793
7138,0.0398
7139,-0.0199
7140,-0.0996
7141,-0.0199
7142,0.0996
7143,0.1395
7144,0.1793
7145,0.2590
7146,0.2789
7147,0.1195
7148,0.0199
7149,-0.0598
7150,-0.1594
7151,-0.1195
7152,-0.1195
7153,-0.0797
7154,-0.0199
7155,0.1195
7156,0.0598
7157,0.0000
7158,-0.0996
7159,-0.1992
7160,-0.2191
7161,-0.1195
7162,-0.0598
7163,0.0398
7164,0.1793
7165,0.1992
7166,0.1793
7167,0.1793
7168,0.1395
7169,0.1793
7170,0.1395
7171,0.1195
7172,0.0398
7173,-0.0598
7174,-0.0797
7175,0.0797
7176,0.1793
7177,0.0598
7178,-0.1793
7179,-0.4582
7180,-0.4582
7181,-0.3188
7182,-0.0398
7183,-0.0398
7184,-0.0398
7185,0.0000
7186,-0.0797
7187,-0.1992
7188,-0.2191
7189,-0.1395
7190,-0.1195
7191,-0.1992
7192,-0.1195
7193,-0.0598
7194,0.0398
7195,0.1395
7196,0.1992
7197,0.0996
7198,-0.0199
7199,-0.0797
7200,0.0199
7201,0.2590
7202,0.1992
7203,0.0598
7204,0.1195
7205,0.0000
7206,-0.0996
7207,0.0000
7208,-0.0199
7209,0.0598
7210,0.0598
7211,-0.0199
7212,0.0199
7213,0.0000
7214,0.0199
7215,-0.0797
7216,-0.1793
7217,-0.1195
7218,-0.1594
7219,-0.1594
7220,-0.1992
7221,-0.2789
7222,-0.1594
7223,-0.1793
7224,-0.1395
7225,-0.1195
7226,-0.1195
7227,-0.2191
7228,-0.4383
7229,-0.3586
7230,-0.2191
7231,-0.1395
7232,-0.0797
7233,-0.0598
7234,-0.0199
7235,0.1594
7236,0.1195
7237,-0.2590
7238,-0.3387
7239,-0.2988
7240,-0.1195
7241,0.0797
7242,0.1395
7243,0.0398
7244,0.0598
7245,-0.0797
7246,-0.0398
7247,0.0598
7248,-0.1195
7249,-0.0199
7250,0.0000
7251,0.0398
7252,0.1793
7253,0.3785
7254,0.3387
7255,0.1793
7256,-0.0598
7257,-0.4184
7258,-0.5777
7259,-0.4184
7260,-0.1992
7261,0.0996
7262,0.1793
7263,0.2391
7264,0.3586
7265,0.5180
7266,0.2789
7267,-0.0199
7268,-0.0996
7269,-0.2191
7270,-0.2988
7271,-0.1195
7272,-0.2191
7273,-0.1195
7274,0.0398
7275,0.0398
7276,-0.0797
7277,-0.1195
7278,-0.1395
7279,-0.1195
7280,-0.0598
7281,-0.0996
7282,-0.1195
7283,-0.1992
7284,-0.1395
7285,-0.2391
7286,-0.2391
7287,-0.1594
7288,-0.0996
7289,-0.1395
7290,-0.0996
7291,-0.1195
7292,-0.0996
7293,-0.0797
7294,-0.0996
7295,-0.0398
7296,0.0398
7297,0.0598
7298,0.0598
7299,0.0000
7300,0.1793
7301,0.1395
7302,-0.0199
7303,-0.1195
7304,-0.1594
7305,-0.0398
7306,-0.0996
7307,-0.0797
7308,-0.0398
7309,0.0199
7310,0.1395
7311,-0.0598
7312,-0.1992
7313,-0.1793
7314,-0.0398
7315,0.0996
7316,0.2191
7317,0.0797
7318,0.0000
7319,-0.0598
7320,-0.0398
7321,-0.0199
7322,-0.0398
7323,-0.0199
7324,-0.0598
7325,-0.0996
7326,-0.2988
7327,-0.4184
7328,-0.4383
7329,-0.4980
7330,-0.3387
7331,-0.1395
7332,0.0797
7333,0.2789
7334,0.4383
7335,0.3785
7336,0.2988
7337,0.2988
7338,0.2191
7339,0.1992
7340,0.0000
7341,-0.1195
7342,-0.2391
7343,-0.2789
7344,-0.1992
7345,-0.1793
7346,-0.0598
7347,0.0398
7348,0.2191
7349,0.3188
7350,0.3785
7351,0.3984
7352,0.2590
7353,0.2391
7354,0.1395
7355,0.1395
7356,0.0199
7357,0.0398
7358,0.0598
7359,0.1195
7360,0.0199
7361,-0.1195
7362,-0.2391
7363,-0.2988
7364,-0.2988
7365,-0.1992
7366,-0.0797
7367,0.0598
7368,0.0797
7369,0.0598
7370,-0.0199
7371,-0.0996
7372,-0.1594
7373,-0.0797
7374,-0.0996
7375,-0.1594
7376,-0.1594
7377,-0.2590
7378,-0.2191
7379,-0.1594
7380,-0.2191
7381,-0.0996
7382,0.0000
7383,0.1195
7384,0.1195
7385,0.1594
7386,0.0996
7387,0.0797
7388,0.1594
7389,0.2789
7390,0.1992
7391,0.0398
7392,-0.3188
7393,-0.6375
7394,-0.5977
7395,-0.4383
7396,-0.1793
7397,-0.0996
7398,-0.3586
7399,-0.3785
7400,-0.1395
7401,0.0996
7402,0.3188
7403,0.4383
7404,0.4383
7405,0.4781
7406,0.4184
7407,0.3586
7408,0.2590
7409,0.0996
7410,0.0000
7411,-0.0598
7412,-0.0996
7413,0.0598
7414,0.0797
7415,0.0398
7416,-0.0797
7417,-0.0398
7418,-0.0598
7419,-0.0996
7420,-0.2191
7421,-0.3586
7422,-0.3188
7423,-0.2590
7424,-0.0996
7425,0.1395
7426,0.1992
7427,0.1594
7428,0.0996
7429,0.0996
7430,0.1195
7431,0.1195
7432,0.1395
7433,0.0199
7434,0.0199
7435,-0.0199
7436,-0.0199
7437,0.0000
7438,0.0398
7439,0.0398
7440,-0.0199
7441,-0.0398
7442,-0.0797
7443,-0.1992
7444,-0.2590
7445,-0.1395
7446,-0.0996
7447,0.0199
7448,-0.0797
7449,0.0199
7450,0.0398
7451,-0.1195
7452,0.0000
7453,0.1594
7454,0.2191
7455,0.3188
7456,0.4582
7457,0.4582
7458,0.4184
7459,0.2789
7460,0.2191
7461,0.0398
7462,-0.0398
7463,-0.0996
7464,-0.1195
7465,0.1195
7466,0.0598
7467,-0.2391
7468,-0.0598
7469,-0.1594
7470,-0.1793
7471,-0.1395
7472,-0.0797
7473,0.0996
7474,0.4184
7475,0.4582
7476,0.4582
7477,0.3984
7478,0.2391
7479,0.2391
7480,0.1793
7481,0.0996
7482,0.1195
7483,0.0797
7484,0.0797
7485,0.0000
7486,-0.0199
7487,-0.1594
7488,-0.1395
7489,-0.0598
7490,0.1594
7491,0.2988
7492,0.2590
7493,0.0797
7494,0.0199
7495,-0.0797
7496,0.0996
7497,0.2391
7498,0.0398
7499,-0.1395
7500,-0.0598
7501,-0.1395
7502,-0.0598
7503,0.0598
7504,0.2191
7505,0.1594
7506,0.2191
7507,0.2391
7508,0.0797
7509,-0.0598
7510,-0.1992
7511,-0.2988
7512,-0.2789
7513,-0.2988
7514,-0.3586
7515,-0.3188
7516,-0.1395
7517,0.0000
7518,0.1793
7519,0.4582
7520,0.5578
7521,0.4582
7522,0.2391
7523,-0.0398
7524,-0.1395
7525,-0.1992
7526,-0.2191
7527,-0.1395
7528,-0.1793
7529,-0.0996
7530,-0.1594
7531,0.0797
7532,-0.0398
7533,-0.1992
7534,-0.4980
7535,-0.9363
7536,-0.7570
7537,-0.3586
7538,0.0199
7539,0.0000
7540,-0.0797
7541,-0.0598
7542,-0.0797
7543,0.0000
7544,0.3586
7545,0.4582
7546,0.3586
7547,0.2789
7548,0.1395
7549,0.0996
7550,0.0199
7551,-0.0199
7552,-0.1594
7553,-0.1195
7554,-0.0199
7555,-0.1195
7556,-0.2391
7557,-0.2391
7558,-0.1992
7559,-0.1395
7560,-0.1594
7561,-0.1594
7562,-0.1793
7563,-0.0996
7564,-0.2191
7565,-0.2191
7566,-0.2191
7567,-0.2391
7568,-0.2789
7569,-0.5180
7570,-0.7770
7571,-0.7371
7572,-0.3984
7573,-0.0996
7574,0.2391
7575,0.4781
7576,0.5379
7577,0.4781
7578,0.2789
7579,0.2789
7580,0.2391
7581,0.0398
7582,-0.1395
7583,-0.1195
7584,-0.0797
7585,-0.0598
7586,-0.1793
7587,-0.2789
7588,-0.3785
7589,-0.3188
7590,-0.2391
7591,-0.1793
7592,-0.0797
7593,-0.0797
7594,-0.0199
7595,-0.0398
7596,-0.1195
7597,-0.2590
7598,-0.3387
7599,-0.4184
7600,-0.6574
7601,-0.5379
7602,-0.1793
7603,0.1992
7604,0.5777
7605,0.5379
7606,0.4383
7607,0.4980
7608,0.3984
7609,0.2590
7610,0.2191
7611,0.1594
7612,0.1195
7613,0.0598
7614,0.0797
7615,0.0199
7616,-0.0996
7617,-0.1594
7618,-0.1195
7619,-0.0398
7620,0.0598
7621,0.0797
7622,0.1195
7623,0.2191
7624,0.3387
7625,0.2191
7626,0.0398
7627,0.0199
7628,-0.0598
7629,0.0598
7630,0.1395
7631,0.1594
7632,0.1594
7633,0.0000
7634,0.0797
7635,-0.1195
7636,-0.2191
7637,-0.2391
7638,-0.1992
7639,-0.0199
7640,0.2789
7641,0.2988
7642,0.2391
7643,0.1195
7644,-0.0996
7645,-0.1594
7646,-0.0996
7647,0.0000
7648,0.0996
7649,0.1793
7650,0.2391
7651,0.2391
7652,0.1793
7653,0.2391
7654,0.2590
7655,0.2988
7656,0.1793
7657,0.1395
7658,0.0398
7659,-0.0996
7660,-0.1992
7661,-0.2988
7662,-0.1594
7663,-0.2590
7664,-0.1594
7665,-0.0398
7666,0.0996
7667,0.1195
7668,0.1594
7669,0.1395
7670,0.0598
7671,0.0797
7672,0.0199
7673,0.0598
7674,0.2191
7675,0.1992
7676,0.1395
7677,0.2191
7678,0.0996
7679,0.0398
7680,-0.0199
7681,-0.0199
7682,-0.0398
7683,-0.0598
7684,-0.1395
7685,-0.0996
7686,-0.0797
7687,0.0000
7688,0.1395
7689,0.2789
7690,0.3387
7691,0.3984
7692,0.2590
7693,0.1992
7694,0.0000
7695,-0.1793
7696,-0.2789
7697,-0.1195
7698,-0.0598
7699,-0.1793
7700,-0.2988
7701,-0.1594
7702,-0.0199
7703,-0.0598
7704,0.0598
7705,-0.0398
7706,0.0000
7707,-0.0398
7708,-0.0797
7709,-0.2988
7710,-0.0199
7711,0.1992
7712,0.1594
7713,0.0398
7714,-0.1395
7715,-0.1992
7716,-0.1195
7717,-0.0199
7718,0.0598
7719,0.0996
7720,0.2590
7721,0.0598
7722,-0.1395
7723,-0.3586
7724,-0.3188
7725,-0.1395
7726,-0.0797
7727,0.0199
7728,-0.0797
7729,-0.1395
7730,-0.1195
7731,-0.0797
7732,0.0398
7733,-0.0199
7734,-0.1195
7735,-0.1793
7736,-0.1992
7737,-0.1395
7738,-0.0996
7739,-0.0598
7740,-0.0996
7741,-0.2191
7742,-0.3188
7743,-0.3785
7744,-0.1395
7745,-0.1395
7746,-0.3785
7747,-0.3984
7748,-0.3785
7749,-0.3586
7750,-0.2590
7751,-0.0598
7752,-0.1195
7753,-0.0199
7754,0.0398
7755,-0.0199
7756,-0.0398
7757,-0.0797
7758,-0.0398
7759,-0.0797
7760,-0.0797
7761,-0.0996
7762,-0.0199
7763,-0.5180
7764,-0.5777
7765,-0.3785
7766,-0.1992
7767,0.0199
7768,0.0996
7769,0.0996
7770,0.0996
7771,0.0398
7772,-0.0398
7773,-0.0398
7774,-0.1594
7775,-0.1992
7776,-0.4383
7777,-0.5379
7778,-0.2191
7779,0.0199
7780,0.1594
7781,0.1793
7782,0.1195
7783,0.0000
7784,-0.0398
7785,0.2391
7786,0.3785
7787,0.2988
7788,0.1992
7789,0.1594
7790,0.1395
7791,0.0797
7792,0.0398
7793,-0.1195
7794,-0.1992
7795,-0.1195
7796,0.1195
7797,0.2988
7798,0.2191
7799,0.0598
7800,-0.1195
7801,-0.1992
7802,-0.1395
7803,-0.0598
7804,0.0598
7805,0.0797
7806,0.0398
7807,0.0199
7808,-0.0199
7809,0.0199
7810,0.1793
7811,0.2590
7812,-0.1195
7813,-0.4184
7814,-0.3785
7815,-0.2590
7816,0.0000
7817,0.1395
7818,0.0797
7819,0.1594
7820,0.1793
7821,0.0996
7822,0.0598
7823,0.0398
7824,0.0598
7825,0.0797
7826,0.0598
7827,0.0996
7828,0.0199
7829,-0.0598
7830,-0.1992
7831,-0.4184
7832,-0.1395
7833,0.0398
7834,0.0398
7835,0.0199
7836,-0.0797
7837,-0.0797
7838,-0.0797
7839,0.0598
7840,0.0797
7841,0.1793
7842,0.0598
7843,-0.0199
7844,-0.0199
7845,-0.0199
7846,-0.0797
7847,-0.1195
7848,-0.1395
7849,-0.1793
7850,-0.2789
7851,-0.2590
7852,-0.2590
7853,-0.1195
7854,-0.0598
7855,0.0797
7856,0.0996
7857,0.0996
7858,0.2391
7859,0.1395
7860,0.1793
7861,0.0797
7862,0.0797
7863,0.0000
7864,-0.2191
7865,-0.1395
7866,-0.1395
7867,0.0199
7868,0.1594
7869,0.2191
7870,0.3188
7871,0.2590
7872,0.1594
7873,0.0996
7874,-0.0199
7875,-0.0199
7876,0.0398
7877,0.0598
7878,0.0797
7879,0.1395
7880,0.1594
7881,0.1793
7882,0.1195
7883,0.0000
7884,0.0000
7885,-0.0598
7886,-0.0598
7887,-0.0598
7888,-0.0598
7889,-0.0398
7890,0.0000
7891,-0.1395
7892,-0.1195
7893,-0.1793
7894,-0.0398
7895,0.0199
7896,-0.0398
7897,0.0000
7898,-0.0199
7899,-0.0598
7900,-0.0398
7901,0.0398
7902,-0.0199
7903,-0.1594
7904,-0.2590
7905,-0.2191
7906,-0.1195
7907,0.0598
7908,0.3188
7909,0.2988
7910,0.3586
7911,0.2789
7912,0.1992
7913,0.0398
7914,0.0598
7915,0.1195
7916,0.1793
7917,0.1793
7918,0.0797
7919,-0.0598
7920,-0.1793
7921,-0.1594
7922,-0.0398
7923,0.0598
7924,0.3586
7925,0.6176
7926,0.4781
7927,0.2191
7928,0.0598
7929,-0.1594
7930,-0.2590
7931,-0.1992
7932,-0.1992
7933,-0.1793
7934,0.3188
7935,0.2988
7936,0.1793
7937,0.0598
7938,-0.1594
7939,-0.2988
7940,-0.2191
7941,-0.1793
7942,0.0398
7943,0.1992
7944,0.0996
7945,0.1594
7946,0.1395
7947,0.2191
7948,0.2590
7949,0.2391
7950,0.1395
7951,0.0996
7952,0.0996
7953,0.1395
7954,0.0797
7955,0.0199
7956,-0.0398
7957,-0.0797
7958,-0.1195
7959,-0.1594
7960,-0.0996
7961,-0.0797
7962,0.0000
7963,0.0398
7964,0.0598
7965,0.1992
7966,0.1793
7967,0.1395
7968,0.0199
7969,-0.0199
7970,-0.1992
7971,-0.2191
7972,-0.0797
7973,0.0996
7974,0.1195
7975,0.2590
7976,0.2191
7977,0.1594
7978,-0.0199
7979,0.0199
7980,-0.0199
7981,-0.0797
7982,-0.0996
7983,-0.2590
7984,-0.2988
7985,-0.3387
7986,-0.4184
7987,-0.2988
7988,-0.1395
7989,-0.0199
7990,0.1793
7991,0.2789
7992,0.3387
7993,0.2191
7994,0.1395
7995,0.1395
7996,0.0996
7997,0.0398
7998,-0.1395
7999,-0.3387
8000,-0.6176
8001,-0.6574
8002,-0.3586
8003,-0.1395
8004,0.0797
8005,0.2988
8006,0.3586
8007,0.3984
8008,0.2191
8009,0.1793
8010,0.1594
8011,0.0797
8012,0.0598
8013,-0.0199
8014,-0.0199
8015,-0.0797
8016,-0.1992
8017,-0.2789
8018,-0.3188
8019,-0.3387
8020,-0.0996
8021,-0.0199
8022,0.1594
8023,0.0996
8024,0.0398
8025,0.0996
8026,0.1594
8027,0.1793
8028,-0.0398
8029,-0.2391
8030,-0.3984
8031,-0.2590
8032,-0.0398
8033,0.1195
8034,0.0398
8035,-0.0996
8036,-0.0797
8037,-0.1594
8038,0.0398
8039,-0.0398
8040,-0.1195
8041,-0.0199
8042,0.0598
8043,0.0000
8044,-0.0797
8045,0.0598
8046,-0.0199
8047,-0.1195
8048,-0.0996
8049,-0.0199
8050,-0.0996
8051,-0.0598
8052,-0.1594
8053,-0.0199
8054,0.1594
8055,0.1395
8056,-0.0598
8057,-0.0797
8058,-0.1195
8059,-0.0199
8060,-0.0598
8061,-0.0199
8062,0.0000
8063,-0.0199
8064,0.0199
8065,0.0199
8066,0.0797
8067,0.1195
8068,0.1395
8069,-0.0996
8070,-0.2988
8071,-0.3785
8072,-0.2988
8073,-0.1395
8074,0.0000
8075,0.1992
8076,0.2988
8077,0.3387
8078,0.2988
8079,0.2988
8080,0.0598
8081,-0.0598
8082,0.0398
8083,0.0598
8084,-0.0398
8085,-0.1992
8086,-0.3785
8087,-0.3387
8088,-0.3586
8089,-0.1395
8090,0.0398
8091,0.0797
8092,0.1992
8093,0.2391
8094,0.2391
8095,0.0996
8096,0.0598
8097,0.0797
8098,0.0797
8099,0.1195
8100,0.0199
8101,0.2191
8102,0.1793
8103,-0.1395
8104,-0.4582
8105,-0.3387
8106,-0.1594
8107,-0.1594
8108,-0.1395
8109,-0.2391
8110,-0.2391
8111,-0.1395
8112,0.0199
8113,0.0199
8114,0.0199
8115,0.0199
8116,0.0996
8117,0.0797
8118,0.0996
8119,0.0797
8120,0.0199
8121,-0.0797
8122,-0.1195
8123,-0.1195
8124,-0.1992
8125,-0.2590
8126,-0.2988
8127,-0.2789
8128,-0.1793
8129,-0.0398
8130,-0.0398
8131,-0.0199
8132,0.0199
8133,0.0000
8134,0.0398
8135,-0.0797
8136,-0.0996
8137,-0.1594
8138,-0.1793
8139,-0.0996
8140,-0.1195
8141,-0.2191
8142,-0.2191
8143,-0.2191
8144,-0.0598
8145,0.0996
8146,0.0199
8147,0.0199
8148,0.0598
8149,0.0000
8150,-0.0598
8151,-0.0797
8152,-0.0598
8153,-0.0996
8154,0.0398
8155,0.0996
8156,0.0797
8157,0.0000
8158,-0.0996
8159,-0.0398
8160,0.0199
8161,0.0398
8162,0.1594
8163,0.1395
8164,0.0199
8165,-0.0797
8166,-0.0598
8167,0.0598
8168,0.3387
8169,0.3785
8170,0.0996
8171,0.0000
8172,-0.1395
8173,-0.1793
8174,-0.0199
8175,-0.0199
8176,0.0598
8177,0.1992
8178,0.1793
8179,0.1992
8180,0.1594
8181,0.1195
8182,0.1992
8183,0.1594
8184,0.0797
8185,0.0000
8186,0.0000
8187,-0.0398
8188,0.0000
8189,-0.0199
8190,0.1195
8191,0.0797
8192,-0.0598
8193,-0.1395
8194,-0.0797
8195,-0.1195
8196,-0.1793
8197,-0.1594
8198,-0.0996
8199,0.0996
8200,0.1793
8201,0.2988
8202,0.4582
8203,0.2590
8204,0.2988
8205,0.1793
8206,0.1195
8207,0.0398
8208,0.0000
8209,0.0000
8210,-0.0996
8211,-0.2191
8212,-0.2789
8213,-0.1594
8214,0.1195
8215,0.0996
8216,-0.0598
8217,-0.1195
8218,-0.2590
8219,-0.1395
8220,-0.0996
8221,0.0199
8222,0.0598
8223,0.0797
8224,0.0996
8225,0.1395
8226,0.2191
8227,0.0598
8228,0.0398
8229,-0.1594
8230,-0.1395
8231,-0.1395
8232,-0.2191
8233,-0.2789
8234,-0.1793
8235,-0.1395
8236,0.0199
8237,0.1594
8238,0.2789
8239,0.1594
8240,0.1195
8241,0.1594
8242,0.0000
8243,-0.0797
8244,-0.1594
8245,-0.1195
8246,-0.0996
8247,0.0199
8248,0.0199
8249,0.0000
8250,-0.0598
8251,-0.2988
8252,-0.3785
8253,-0.2988
8254,-0.2391
8255,-0.1395
8256,0.0000
8257,0.0797
8258,0.0199
8259,0.0199
8260,0.0398
8261,0.0000
8262,-0.0996
8263,-0.1195
8264,-0.1195
8265,-0.1395
8266,-0.1395
8267,-0.0797
8268,-0.1195
8269,-0.0598
8270,0.0398
8271,-0.0598
8272,-0.1594
8273,-0.2789
8274,-0.0996
8275,-0.0598
8276,-0.1195
8277,-0.1992
8278,-0.2789
8279,-0.2191
8280,0.2191
8281,0.3785
8282,0.3586
8283,0.2590
8284,0.0199
8285,-0.2191
8286,-0.2988
8287,-0.1594
8288,0.0598
8289,0.0996
8290,0.0000
8291,0.0797
8292,0.0398
8293,0.0398
8294,0.1195
8295,0.0199
8296,-0.0797
8297,-0.1594
8298,-0.2590
8299,-0.1793
8300,-0.0996
8301,-0.1793
8302,-0.2590
8303,-0.2988
8304,-0.2391
8305,-0.1992
8306,-0.0398
8307,0.0996
8308,0.1793
8309,0.1793
8310,0.1594
8311,0.1395
8312,0.1793
8313,0.0996
8314,0.0797
8315,0.0199
8316,-0.0199
8317,-0.0398
8318,-0.0199
8319,-0.1195
8320,-0.0797
8321,-0.1395
8322,-0.0199
8323,-0.0598
8324,-0.1594
8325,-0.1195
8326,-0.1594
8327,-0.1395
8328,-0.0996
8329,-0.0996
8330,-0.0797
8331,-0.0598
8332,-0.0598
8333,-0.0996
8334,-0.0996
8335,-0.0996
8336,-0.0398
8337,0.1793
8338,0.3188
8339,0.2590
8340,-0.0398
8341,-0.1992
8342,-0.3387
8343,-0.3387
8344,-0.2789
8345,-0.2988
8346,-0.3586
8347,-0.0598
8348,0.1195
8349,0.2988
8350,0.4980
8351,0.4383
8352,0.3387
8353,0.2191
8354,0.0996
8355,0.0797
8356,0.0398
8357,-0.0797
8358,-0.1395
8359,-0.2191
8360,-0.3188
8361,-0.2988
8362,-0.1395
8363,0.0996
8364,0.1594
8365,0.1992
8366,0.1992
8367,0.0000
8368,-0.1594
8369,-0.1195
8370,-0.1195
8371,-0.1195
8372,-0.0797
8373,0.1793
8374,0.5180
8375,0.4184
8376,0.2391
8377,0.0598
8378,-0.0199
8379,0.0199
8380,0.1195
8381,0.0996
8382,-0.1395
8383,-0.1594
8384,0.0199
8385,0.0996
8386,0.2191
8387,0.2191
8388,0.1395
8389,0.0797
8390,-0.0199
8391,0.0598
8392,0.0996
8393,0.0797
8394,0.1195
8395,0.0797
8396,0.0797
8397,0.0598
8398,0.0797
8399,0.0797
8400,0.0398
8401,0.0598
8402,0.0797
8403,0.0996
8404,0.0598
8405,0.0000
8406,-0.0398
8407,0.1195
8408,0.1793
8409,0.0199
8410,-0.2391
8411,-0.2988
8412,-0.2391
8413,0.0000
8414,-0.0797
8415,-0.1793
8416,-0.3188
8417,-0.4184
8418,-0.3387
8419,-0.2391
8420,-0.0996
8421,0.2191
8422,0.3984
8423,0.4184
8424,0.3188
8425,0.0199
8426,0.0000
8427,0.0398
8428,0.0598
8429,0.1992
8430,0.3188
8431,0.1793
8432,0.1594
8433,0.0598
8434,0.1793
8435,0.1594
8436,0.0996
8437,0.1195
8438,0.0598
8439,0.0199
8440,0.0398
8441,0.0000
8442,-0.0199
8443,-0.0199
8444,0.0199
8445,0.0000
8446,0.0598
8447,0.0797
8448,0.0598
8449,0.0996
8450,0.0398
8451,-0.0398
8452,0.0000
8453,0.0000
8454,0.0797
8455,0.0199
8456,-0.0199
8457,0.0398
8458,0.0797
8459,-0.0199
8460,-0.0199
8461,-0.0996
8462,-0.1992
8463,-0.1395
8464,-0.0996
8465,-0.0797
8466,-0.1594
8467,-0.2590
8468,-0.2789
8469,-0.3387
8470,-0.2988
8471,-0.2789
8472,-0.2191
8473,-0.0996
8474,-0.1594
8475,-0.1395
8476,-0.0199
8477,0.0797
8478,-0.0199
8479,-0.0398
8480,-0.0598
8481,0.0797
8482,0.0797
8483,0.0000
8484,-0.1594
8485,-0.3387
8486,-0.3188
8487,-0.3188
8488,-0.1992
8489,-0.0996
8490,-0.0797
8491,0.0398
8492,0.1594
8493,0.1195
8494,0.0996
8495,-0.1195
8496,-0.2988
8497,-0.2789
8498,-0.3188
8499,-0.2590
8500,-0.1395
8501,-0.0996
8502,-0.0598
8503,-0.0797
8504,-0.0996
8505,-0.1992
8506,-0.2191
8507,-0.2391
8508,-0.1992
8509,0.0199
8510,0.2391
8511,0.2590
8512,0.2191
8513,-0.0199
8514,-0.2391
8515,-0.1395
8516,-0.0797
8517,-0.0598
8518,-0.0996
8519,-0.0199
8520,-0.0199
8521,-0.0398
8522,0.0000
8523,0.0598
8524,-0.0398
8525,-0.1594
8526,-0.1594
8527,-0.0996
8528,-0.1395
8529,-0.0398
8530,-0.0797
8531,-0.0797
8532,-0.1594
8533,-0.1195
8534,0.0000
8535,0.0199
8536,0.1793
8537,0.2391
8538,0.0598
8539,-0.2191
8540,-0.2191
8541,-0.1594
8542,-0.1992
8543,-0.1992
8544,-0.0398
8545,0.0797
8546,0.0398
8547,-0.0398
8548,-0.1793
8549,-0.2789
8550,-0.3984
8551,-0.2988
8552,-0.1992
8553,-0.0199
8554,0.1594
8555,0.2988
8556,0.4383
8557,0.3984
8558,0.3387
8559,0.0398
8560,-0.1793
8561,-0.1992
8562,-0.0598
8563,-0.2789
8564,-0.4184
8565,-0.4184
8566,-0.3586
8567,-0.1195
8568,0.1395
8569,0.1195
8570,0.0598
8571,0.0199
8572,0.0000
8573,0.0797
8574,0.1195
8575,0.1195
8576,0.1594
8577,0.0598
8578,0.0199
8579,0.1195
8580,0.4383
8581,0.2988
8582,0.0797
8583,-0.2191
8584,-0.4582
8585,-0.5977
8586,-0.4980
8587,-0.2391
8588,-0.0797
8589,-0.0199
8590,-0.0398
8591,-0.0996
8592,-0.0996
8593,-0.0398
8594,0.0398
8595,0.1992
8596,0.1594
8597,0.0598
8598,0.0797
8599,0.1195
8600,0.1395
8601,0.0398
8602,0.0000
8603,-0.0398
8604,0.0199
8605,0.0000
8606,-0.0398
8607,-0.1395
8608,-0.3387
8609,-0.1395
8610,-0.0398
8611,-0.0199
8612,0.0797
8613,0.1195
8614,0.0000
8615,0.0996
8616,0.1195
8617,0.1195
8618,0.0598
8619,-0.0598
8620,-0.0797
8621,-0.1395
8622,-0.2191
8623,-0.0996
8624,-0.0797
8625,-0.0797
8626,-0.2590
8627,-0.2988
8628,-0.3188
8629,-0.2391
8630,-0.0996
8631,-0.0996
8632,-0.0598
8633,-0.0996
8634,0.0199
8635,0.0199
8636,0.1992
8637,0.1992
8638,0.1395
8639,-0.0199
8640,0.0398
8641,-0.0199
8642,-0.1793
8643,-0.2391
8644,-0.3188
8645,-0.3785
8646,-0.2191
8647,0.1793
8648,0.3785
8649,0.4980
8650,0.4980
8651,0.3586
8652,0.2590
8653,0.1594
8654,0.0598
8655,0.0598
8656,0.0797
8657,0.0598
8658,-0.0199
8659,-0.1195
8660,-0.2391
8661,-0.2391
8662,-0.1594
8663,-0.1992
8664,-0.3188
8665,-0.2191
8666,-0.1992
8667,-0.2191
8668,0.0000
8669,0.0797
8670,-0.0199
8671,-0.0996
8672,-0.0598
8673,-0.1793
8674,-0.2391
8675,-0.3984
8676,-0.3785
8677,-0.2391
8678,-0.0398
8679,0.0996
8680,0.2789
8681,0.2988
8682,0.1992
8683,0.0598
8684,-0.0996
8685,-0.1594
8686,-0.1992
8687,-0.2391
8688,-0.2191
8689,-0.0996
8690,-0.1594
8691,-0.1395
8692,-0.0598
8693,-0.0398
8694,-0.0199
8695,-0.0996
8696,-0.0996
8697,0.0199
8698,0.2191
8699,0.1992
8700,0.1992
8701,0.0598
8702,-0.0199
8703,0.1195
8704,0.1594
8705,0.1594
8706,0.3984
8707,0.2988
8708,0.1594
8709,-0.1793
8710,-0.3785
8711,-0.4184
8712,-0.3188
8713,-0.1395
8714,0.0398
8715,0.2191
8716,0.3586
8717,0.4383
8718,0.6176
8719,0.4184
8720,0.1195
8721,0.0598
8722,-0.0398
8723,-0.2191
8724,-0.2191
8725,-0.1395
8726,-0.2191
8727,-0.0797
8728,-0.0598
8729,-0.0398
8730,-0.0199
8731,-0.0199
8732,-0.0598
8733,-0.0598
8734,0.0199
8735,0.0598
8736,0.0199
8737,-0.0996
8738,-0.1793
8739,-0.0996
8740,0.1195
8741,0.1992
8742,0.1594
8743,0.0598
8744,-0.0996
8745,-0.1395
8746,-0.1195
8747,-0.0199
8748,0.0199
8749,0.0000
8750,0.0398
8751,0.0000
8752,-0.1395
8753,-0.2391
8754,-0.1594
8755,-0.1992
8756,-0.2391
8757,-0.2391
8758,-0.2590
8759,-0.1793
8760,-0.1195
8761,0.0000
8762,0.1992
8763,0.0199
8764,0.0199
8765,0.0000
8766,-0.0598
8767,-0.0598
8768,-0.0199
8769,-0.0199
8770,-0.0199
8771,0.0000
8772,-0.1195
8773,-0.0996
8774,-0.0398
8775,0.0199
8776,0.0199
8777,0.0996
8778,0.1195
8779,0.0000
8780,0.0598
8781,0.0199
8782,-0.0398
8783,0.0000
8784,0.0398
8785,-0.0797
8786,-0.1195
8787,-0.1594
8788,-0.1992
8789,-0.1195
8790,-0.0398
8791,-0.0598
8792,0.0398
8793,0.0797
8794,0.2590
8795,0.3188
8796,0.2789
8797,0.2590
8798,0.2391
8799,0.1992
8800,0.1793
8801,-0.0797
8802,-0.3188
8803,-0.3984
8804,-0.5777
8805,-0.3785
8806,-0.0398
8807,0.1395
8808,0.0398
8809,-0.0996
8810,0.0199
8811,0.1395
8812,0.3188
8813,0.3387
8814,0.2191
8815,0.1594
8816,0.3785
8817,0.2789
8818,-0.0199
8819,-0.0398
8820,-0.1793
8821,-0.3984
8822,-0.5379
8823,-0.4582
8824,-0.2789
8825,-0.1395
8826,0.0398
8827,0.1195
8828,0.0797
8829,0.2789
8830,0.1594
8831,-0.0398
8832,-0.2391
8833,-0.4383
8834,-0.4582
8835,-0.4184
8836,-0.3586
8837,-0.2988
8838,-0.0996
8839,0.0398
8840,-0.0996
8841,-0.3188
8842,-0.2191
8843,0.1594
8844,0.5777
8845,0.5777
8846,0.2590
8847,-0.0398
8848,-0.1793
8849,-0.2988
8850,-0.1395
8851,-0.1793
8852,-0.1395
8853,-0.0199
8854,0.0000
8855,0.0000
8856,0.0000
8857,0.0797
8858,0.0199
8859,-0.0199
8860,0.1195
8861,0.0598
8862,-0.0199
8863,-0.1195
8864,-0.2391
8865,-0.2391
8866,-0.1992
8867,-0.3188
8868,-0.0996
8869,-0.0996
8870,-0.1195
8871,-0.0598
8872,-0.2590
8873,-0.2191
8874,0.0797
8875,0.3188
8876,0.3188
8877,0.2590
8878,0.2391
8879,0.0996
8880,0.0398
8881,0.0598
8882,-0.0199
8883,-0.0598
8884,-0.1195
8885,-0.1793
8886,-0.0996
8887,-0.1594
8888,-0.1195
8889,-0.0598
8890,-0.0598
8891,0.0199
8892,0.0398
8893,0.0598
8894,0.0797
8895,0.0996
8896,0.0199
8897,-0.0598
8898,0.0398
8899,0.1395
8900,0.2191
8901,-0.0199
8902,-0.1793
8903,0.1992
8904,0.1594
8905,0.0598
8906,0.0000
8907,-0.2789
8908,-0.3984
8909,-0.1992
8910,-0.1395
8911,0.0598
8912,0.2988
8913,0.2191
8914,0.1793
8915,0.1195
8916,0.0996
8917,0.1594
8918,0.0398
8919,-0.0398
8920,-0.0996
8921,-0.1395
8922,-0.0996
8923,-0.1793
8924,-0.2191
8925,-0.0996
8926,-0.1195
8927,-0.1395
8928,-0.1594
8929,-0.0398
8930,-0.1195
8931,-0.2191
8932,-0.2191
8933,-0.2789
8934,-0.1395
8935,-0.1594
8936,-0.1992
8937,-0.1594
8938,-0.0797
8939,-0.1594
8940,-0.1195
8941,0.1992
8942,0.1594
8943,-0.0996
8944,-0.3188
8945,-0.2988
8946,-0.2590
8947,-0.1793
8948,0.0199
8949,0.1793
8950,0.1992
8951,0.0398
8952,0.0996
8953,0.0996
8954,0.0398
8955,0.1195
8956,0.2191
8957,0.3188
8958,0.2789
8959,0.1395
8960,0.0996
8961,-0.1195
8962,-0.1793
8963,-0.0598
8964,0.0000
8965,0.0996
8966,0.0398
8967,0.0199
8968,0.0398
8969,-0.0398
8970,-0.0797
8971,-0.1793
8972,-0.2590
8973,-0.3188
8974,-0.4781
8975,-0.4582
8976,-0.3387
8977,-0.1594
8978,-0.0598
8979,0.0398
8980,0.1195
8981,0.4383
8982,0.1793
8983,0.0598
8984,0.0199
8985,-0.0598
8986,0.0000
8987,0.0199
8988,0.0398
8989,-0.0996
8990,-0.0797
8991,0.0000
8992,-0.0598
8993,-0.1793
8994,-0.2191
8995,-0.1395
8996,-0.2191
8997,-0.1793
8998,-0.0996
8999,0.1594
9000,0.3984
9001,0.4980
9002,0.3586
9003,0.1195
9004,-0.0199
9005,-0.0598
9006,-0.0598
9007,0.0000
9008,0.0199
9009,0.0996
9010,0.0797
9011,0.1992
9012,0.3188
9013,0.2789
9014,-0.0199
9015,-0.2191
9016,-0.2789
9017,-0.2391
9018,-0.1395
9019,-0.0199
9020,0.1195
9021,0.1195
9022,0.1395
9023,0.0199
9024,-0.0398
9025,-0.0598
9026,0.0000
9027,-0.0398
9028,-0.0996
9029,-0.0598
9030,-0.0199
9031,0.0000
9032,-0.0398
9033,-0.2391
9034,-0.2789
9035,-0.2191
9036,-0.0996
9037,0.1395
9038,0.1992
9039,0.1195
9040,0.2191
9041,0.1793
9042,0.2391
9043,0.1395
9044,0.0598
9045,-0.0598
9046,0.0199
9047,0.0199
9048,0.2191
9049,0.2191
9050,0.0797
9051,-0.0797
9052,-0.1395
9053,-0.0797
9054,0.0797
9055,0.0598
9056,0.0398
9057,0.0000
9058,-0.0398
9059,-0.0199
9060,0.0000
9061,-0.0398
9062,0.0398
9063,-0.1594
9064,-0.1594
9065,-0.0996
9066,-0.0199
9067,0.0199
9068,0.0000
9069,0.0598
9070,0.0199
9071,0.0199
9072,0.0000
9073,-0.1594
9074,-0.3586
9075,-0.1195
9076,0.0000
9077,0.0199
9078,0.0000
9079,0.0797
9080,0.1195
9081,0.2590
9082,0.2988
9083,0.3586
9084,0.3984
9085,0.2590
9086,0.2590
9087,0.0996
9088,0.0598
9089,-0.0199
9090,-0.0996
9091,-0.1793
9092,-0.1195
9093,-0.1395
9094,-0.0996
9095,-0.0996
9096,-0.1594
9097,-0.1395
9098,-0.1793
9099,-0.1793
9100,-0.2391
9101,-0.2590
9102,-0.1793
9103,-0.0598
9104,0.1195
9105,0.2191
9106,-0.1195
9107,-0.2988
9108,-0.1793
9109,-0.0398
9110,0.0398
9111,0.1793
9112,0.0996
9113,0.0199
9114,-0.2391
9115,-0.2988
9116,-0.1594
9117,0.0199
9118,0.1395
9119,0.2590
9120,0.2789
9121,0.1992
9122,0.1594
9123,0.0598
9124,0.0598
9125,0.0000
9126,0.0598
9127,0.0598
9128,-0.0398
9129,-0.0797
9130,-0.0996
9131,-0.1992
9132,-0.3387
9133,-0.4383
9134,-0.7172
9135,-0.5777
9136,-0.1793
9137,0.2391
9138,0.6773
9139,0.9961
9140,0.8766
9141,0.6973
9142,0.5180
9143,0.4980
9144,0.7770
9145,0.6176
9146,0.3188
9147,-0.0199
9148,-0.2988
9149,-0.3785
9150,-0.3785
9151,-0.1594
9152,-0.0398
9153,0.0996
9154,0.0398
9155,0.0598
9156,0.1395
9157,0.1195
9158,0.0797
9159,0.0398
9160,0.1195
9161,0.1195
9162,0.0000
9163,-0.1395
9164,-0.3387
9165,-0.4781
9166,-0.4383
9167,-0.2590
9168,-0.1992
9169,-0.0199
9170,-0.0598
9171,-0.0398
9172,0.0000
9173,0.0398
9174,0.2590
9175,0.1594
9176,0.0000
9177,-0.0199
9178,-0.0996
9179,-0.1195
9180,-0.1594
9181,-0.2191
9182,-0.2191
9183,-0.1992
9184,-0.1395
9185,-0.1395
9186,-0.1395
9187,-0.0996
9188,-0.0598
9189,0.0199
9190,0.0398
9191,-0.0398
9192,0.0000
9193,0.0797
9194,-0.1195
9195,-0.3387
9196,-0.3188
9197,-0.1594
9198,0.0398
9199,0.1992
9200,0.3188
9201,0.3188
9202,0.2590
9203,0.1992
9204,0.2391
9205,0.2391
9206,0.2391
9207,0.2391
9208,0.1793
9209,0.1793
9210,0.1395
9211,0.1395
9212,0.0797
9213,0.0797
9214,0.0797
9215,-0.1395
9216,-0.2391
9217,-0.0797
9218,0.0598
9219,0.2191
9220,0.2191
9221,0.1594
9222,0.1195
9223,0.0797
9224,0.1195
9225,0.0797
9226,0.0797
9227,0.0199
9228,-0.0398
9229,-0.0996
9230,-0.0598
9231,-0.0398
9232,-0.0199
9233,0.0199
9234,-0.0398
9235,-0.0797
9236,-0.1395
9237,0.0199
9238,0.1395
9239,0.0000
9240,-0.1992
9241,-0.3188
9242,-0.2391
9243,-0.2789
9244,-0.3188
9245,-0.2191
9246,-0.0398
9247,0.0398
9248,0.1395
9249,0.0398
9250,-0.0398
9251,0.0199
9252,-0.0199
9253,-0.1793
9254,-0.2988
9255,-0.3387
9256,-0.3387
9257,-0.2789
9258,-0.0598
9259,0.0996
9260,0.0996
9261,0.0996
9262,0.0598
9263,0.0000
9264,-0.0199
9265,0.0398
9266,0.0398
9267,-0.0996
9268,0.0199
9269,0.1793
9270,0.3188
9271,0.3387
9272,0.2789
9273,0.0996
9274,0.0000
9275,-0.0797
9276,-0.0996
9277,-0.0797
9278,-0.1195
9279,-0.0797
9280,-0.0199
9281,0.0199
9282,0.0598
9283,0.0199
9284,-0.0598
9285,-0.0797
9286,-0.2191
9287,-0.2191
9288,-0.0797
9289,-0.0996
9290,-0.1992
9291,-0.2391
9292,-0.2391
9293,-0.1793
9294,-0.1395
9295,0.0996
9296,0.2391
9297,0.2789
9298,0.2391
9299,0.2191
9300,0.0996
9301,0.0000
9302,0.2191
9303,0.1793
9304,-0.0797
9305,-0.3785
9306,-0.5180
9307,-0.5379
9308,-0.4582
9309,-0.2590
9310,0.0398
9311,0.3785
9312,0.4582
9313,0.4781
9314,0.3586
9315,0.3188
9316,0.2988
9317,0.2391
9318,0.0797
9319,-0.0199
9320,-0.0199
9321,-0.2191
9322,-0.1395
9323,-0.0598
9324,0.0199
9325,0.0199
9326,0.0598
9327,0.0797
9328,0.0000
9329,-0.0996
9330,-0.0996
9331,-0.0598
9332,0.1195
9333,0.3586
9334,0.3785
9335,0.2789
9336,0.1395
9337,-0.0398
9338,-0.2391
9339,-0.1594
9340,0.1195
9341,0.1195
9342,0.0797
9343,0.0000
9344,-0.0199
9345,-0.0797
9346,0.0000
9347,0.1594
9348,0.1395
9349,0.0000
9350,0.0000
9351,-0.0797
9352,-0.0996
9353,-0.0996
9354,-0.0598
9355,0.0797
9356,0.2191
9357,0.2391
9358,0.0797
9359,-0.0797
9360,-0.1395
9361,-0.0398
9362,0.0199
9363,0.1195
9364,0.3586
9365,0.3586
9366,0.0398
9367,-0.2590
9368,-0.3387
9369,-0.2590
9370,-0.1594
9371,-0.0996
9372,0.0000
9373,0.0598
9374,0.1195
9375,0.0797
9376,0.0398
9377,0.0000
9378,-0.0199
9379,-0.1195
9380,-0.2191
9381,-0.1195
9382,0.0000
9383,0.1992
9384,0.2391
9385,0.1992
9386,0.0996
9387,0.0398
9388,-0.0199
9389,-0.0996
9390,-0.0996
9391,-0.1195
9392,-0.0797
9393,0.0000
9394,0.1195
9395,0.0598
9396,0.1195
9397,0.1793
9398,0.0598
9399,0.0398
9400,-0.0996
9401,-0.0199
9402,-0.0797
9403,-0.0199
9404,-0.0598
9405,-0.1793
9406,-0.1793
9407,-0.1594
9408,-0.0797
9409,0.0797
9410,0.1594
9411,0.1195
9412,0.0996
9413,0.2191
9414,0.1793
9415,0.1992
9416,0.0797
9417,-0.1195
9418,-0.0797
9419,-0.1195
9420,-0.1793
9421,-0.1793
9422,-0.2391
9423,-0.3188
9424,-0.2191
9425,-0.0598
9426,0.0598
9427,0.2988
9428,0.2789
9429,0.1992
9430,0.1395
9431,0.0797
9432,0.0199
9433,0.0598
9434,-0.0199
9435,0.0398
9436,0.2391
9437,0.1395
9438,0.0000
9439,-0.2590
9440,-0.4383
9441,-0.5379
9442,-0.2391
9443,-0.1594
9444,-0.0996
9445,0.0199
9446,0.1992
9447,0.3188
9448,0.5180
9449,0.6375
9450,0.4582
9451,0.0797
9452,-0.0797
9453,-0.1395
9454,-0.1195
9455,-0.0398
9456,-0.0797
9457,0.0199
9458,-0.0797
9459,-0.0797
9460,-0.2391
9461,-0.3586
9462,-0.3387
9463,-0.2590
9464,-0.2988
9465,-0.1992
9466,-0.1395
9467,-0.0797
9468,-0.0996
9469,0.0199
9470,-0.0996
9471,-0.1195
9472,-0.1195
9473,-0.0598
9474,-0.1395
9475,-0.0797
9476,-0.0797
9477,-0.1195
9478,-0.0996
9479,-0.0797
9480,-0.0398
9481,0.0199
9482,0.0996
9483,0.0797
9484,0.0797
9485,0.0996
9486,-0.0199
9487,-0.0199
9488,-0.1195
9489,-0.0199
9490,-0.0996
9491,-0.0797
9492,0.0398
9493,0.0598
9494,-0.0598
9495,-0.0398
9496,-0.0199
9497,0.0598
9498,0.1992
9499,0.3188
9500,0.3586
9501,0.3586
9502,0.1793
9503,0.0398
9504,-0.0996
9505,-0.1594
9506,-0.1793
9507,-0.0797
9508,0.0000
9509,0.0000
9510,0.0398
9511,0.0398
9512,0.0996
9513,-0.0398
9514,-0.1395
9515,-0.1793
9516,-0.1594
9517,-0.1195
9518,-0.1195
9519,-0.0398
9520,0.0598
9521,0.0000
9522,0.0598
9523,0.0996
9524,0.1195
9525,0.0996
9526,0.0797
9527,-0.0598
9528,-0.1195
9529,-0.0996
9530,-0.1195
9531,-0.0398
9532,-0.1793
9533,-0.2988
9534,-0.3984
9535,-0.3586
9536,-0.2590
9537,0.0199
9538,0.0398
9539,0.0199
9540,-0.0598
9541,-0.1195
9542,-0.1992
9543,-0.1594
9544,-0.0797
9545,-0.0598
9546,-0.0199
9547,0.0996
9548,0.1395
9549,0.0797
9550,0.0199
9551,-0.0199
9552,-0.0598
9553,-0.0797
9554,-0.1195
9555,-0.1195
9556,-0.1793
9557,-0.2391
9558,-0.1793
9559,-0.1594
9560,-0.2191
9561,-0.2191
9562,-0.2391
9563,-0.3984
9564,-0.5180
9565,-0.5379
9566,-0.5977
9567,-0.4582
9568,-0.2789
9569,0.0398
9570,0.3188
9571,0.5777
9572,0.6574
9573,0.3785
9574,0.2391
9575,0.1395
9576,0.0996
9577,-0.0199
9578,-0.0996
9579,-0.1195
9580,-0.1195
9581,-0.1195
9582,-0.2590
9583,-0.0797
9584,-0.0398
9585,0.0598
9586,0.1395
9587,0.0996
9588,-0.0398
9589,-0.0598
9590,-0.0598
9591,0.0199
9592,0.0598
9593,0.0797
9594,0.0598
9595,0.0598
9596,0.0000
9597,0.0199
9598,-0.0398
9599,0.0000
9600,-0.0996
9601,-0.0996
9602,-0.1195
9603,-0.0797
9604,0.0000
9605,0.0996
9606,0.0598
9607,0.0000
9608,-0.0598
9609,-0.0199
9610,-0.0199
9611,-0.0996
9612,-0.0996
9613,-0.1195
9614,-0.1594
9615,-0.0199
9616,-0.0398
9617,-0.0598
9618,-0.2789
9619,-0.2789
9620,-0.2988
9621,-0.2988
9622,-0.3188
9623,-0.4582
9624,-0.2789
9625,0.0000
9626,0.1395
9627,0.2789
9628,0.3586
9629,0.2988
9630,0.0797
9631,-0.0598
9632,-0.0996
9633,-0.0398
9634,0.0000
9635,0.0000
9636,0.0000
9637,0.0199
9638,0.0797
9639,0.1594
9640,0.2391
9641,0.1992
9642,0.0996
9643,0.0199
9644,-0.1793
9645,-0.1793
9646,-0.0996
9647,0.0598
9648,0.1594
9649,0.1395
9650,0.1195
9651,-0.0598
9652,-0.2988
9653,-0.3586
9654,-0.2988
9655,-0.1195
9656,-0.0398
9657,0.0598
9658,0.1594
9659,0.0996
9660,0.0199
9661,0.1395
9662,0.1395
9663,-0.0797
9664,-0.1395
9665,-0.1992
9666,-0.1594
9667,0.0199
9668,0.0000
9669,0.0996
9670,0.1594
9671,0.1594
9672,0.0398
9673,-0.1395
9674,-0.1992
9675,-0.1395
9676,-0.0996
9677,0.0797
9678,0.1594
9679,0.0996
9680,0.2391
9681,0.2391
9682,0.0000
9683,-0.2988
9684,-0.3785
9685,-0.3387
